Date,Open,High,Low,Close,Adj Close,Volume
1993-04-19,4.750000,4.937500,4.750000,4.875000,2.887931,64400
1993-04-26,4.812500,4.875000,4.500000,4.500000,2.665781,100400
1993-05-03,4.468750,4.468750,4.156250,4.281250,2.536195,86800
1993-05-10,4.312500,4.687500,4.000000,4.625000,2.739830,233200
1993-05-17,4.593750,4.593750,4.343750,4.531250,2.684294,136000
1993-05-24,4.468750,4.500000,4.218750,4.312500,2.554708,275600
1993-05-31,4.343750,4.500000,4.343750,4.468750,2.647270,68000
1993-06-07,4.437500,4.531250,4.406250,4.437500,2.628757,164000
1993-06-14,4.437500,4.562500,4.437500,4.500000,2.665781,259200
1993-06-21,4.562500,4.625000,4.531250,4.531250,2.684294,690800
1993-06-28,4.531250,4.687500,4.531250,4.687500,2.776855,130400
1993-07-05,4.656250,4.750000,4.656250,4.656250,2.758343,155600
1993-07-12,4.687500,4.687500,4.468750,4.562500,2.702807,716800
1993-07-19,4.593750,4.625000,4.500000,4.625000,2.739830,377200
1993-07-26,4.656250,4.718750,4.562500,4.656250,2.758343,60400
1993-08-02,4.687500,4.687500,4.593750,4.625000,2.739830,67200
1993-08-09,4.656250,4.750000,4.593750,4.750000,2.844218,54400
1993-08-16,4.781250,4.781250,4.656250,4.718750,2.825508,84800
1993-08-23,4.750000,4.781250,4.625000,4.750000,2.844218,82800
1993-08-30,4.750000,4.781250,4.625000,4.750000,2.844218,162400
1993-09-06,4.750000,4.843750,4.750000,4.781250,2.862931,148000
1993-09-13,4.718750,4.812500,4.687500,4.687500,2.806795,344400
1993-09-20,4.687500,4.906250,4.562500,4.875000,2.919067,344800
1993-09-27,4.875000,5.312500,4.875000,5.250000,3.143613,583200
1993-10-04,5.218750,5.406250,5.218750,5.375000,3.218458,346400
1993-10-11,5.343750,5.500000,5.312500,5.406250,3.237169,138800
1993-10-18,5.437500,5.437500,5.312500,5.343750,3.199747,171200
1993-10-25,5.281250,5.500000,5.250000,5.281250,3.162323,202000
1993-11-01,5.281250,5.375000,4.937500,5.000000,2.993914,162000
1993-11-08,5.000000,5.343750,5.000000,5.312500,3.211621,339200
1993-11-15,5.343750,5.437500,5.281250,5.375000,3.249406,183200
1993-11-22,5.312500,5.312500,5.156250,5.312500,3.211621,117200
1993-11-29,5.375000,5.406250,5.250000,5.250000,3.173839,45600
1993-12-06,5.281250,5.281250,5.218750,5.281250,3.192728,182800
1993-12-13,5.281250,5.281250,5.031250,5.031250,3.041594,559600
1993-12-20,5.031250,5.218750,5.031250,5.187500,3.136054,211600
1993-12-27,5.156250,5.187500,5.093750,5.187500,3.136054,23600
1994-01-03,5.125000,5.187500,5.093750,5.093750,3.079378,53200
1994-01-10,5.093750,5.125000,5.031250,5.093750,3.079378,82000
1994-01-17,5.093750,5.250000,5.031250,5.062500,3.060485,180000
1994-01-24,5.125000,5.187500,5.062500,5.062500,3.060485,92400
1994-01-31,5.093750,5.281250,5.062500,5.250000,3.173839,104800
1994-02-07,5.250000,5.437500,5.250000,5.406250,3.299721,53200
1994-02-14,5.406250,5.500000,5.343750,5.406250,3.299721,159600
1994-02-21,5.437500,5.437500,5.312500,5.343750,3.261575,14800
1994-02-28,5.312500,5.593750,5.312500,5.562500,3.395090,169600
1994-03-07,5.562500,5.687500,5.562500,5.593750,3.414163,86000
1994-03-14,5.593750,5.687500,5.562500,5.687500,3.471386,538000
1994-03-21,5.625000,5.656250,5.625000,5.625000,3.433240,324800
1994-03-28,5.625000,5.656250,5.312500,5.343750,3.261575,290400
1994-04-04,5.312500,5.656250,5.312500,5.625000,3.433240,614800
1994-04-11,5.593750,5.625000,5.437500,5.468750,3.337871,86000
1994-04-18,5.468750,5.500000,5.406250,5.406250,3.299721,98800
1994-04-25,5.468750,5.687500,5.468750,5.593750,3.414163,72000
1994-05-02,5.531250,5.718750,5.500000,5.687500,3.471386,428400
1994-05-09,5.625000,6.125000,5.593750,5.687500,3.509238,144000
1994-05-16,5.718750,5.906250,5.718750,5.843750,3.605645,52400
1994-05-23,5.875000,6.125000,5.812500,6.093750,3.759898,428800
1994-05-30,6.093750,6.406250,6.031250,6.406250,3.952712,306000
1994-06-06,6.406250,6.406250,6.093750,6.156250,3.798461,126400
1994-06-13,6.125000,6.218750,6.031250,6.156250,3.798461,118800
1994-06-20,6.156250,6.156250,5.812500,5.812500,3.586363,110800
1994-06-27,5.812500,5.812500,5.656250,5.718750,3.528519,127200
1994-07-04,5.718750,5.968750,5.718750,5.875000,3.624926,73600
1994-07-11,5.906250,5.937500,5.812500,5.843750,3.605645,90000
1994-07-18,5.843750,6.187500,5.843750,6.093750,3.759898,81200
1994-07-25,6.093750,6.187500,6.093750,6.093750,3.759898,88800
1994-08-01,6.093750,6.125000,6.000000,6.000000,3.702052,82000
1994-08-08,6.031250,6.031250,5.906250,5.906250,3.680447,57600
1994-08-15,5.875000,5.875000,5.593750,5.593750,3.485713,119600
1994-08-22,5.625000,5.625000,5.531250,5.625000,3.505188,23200
1994-08-29,5.562500,5.937500,5.562500,5.937500,3.699919,338400
1994-09-05,6.093750,6.093750,6.000000,6.062500,3.777814,71200
1994-09-12,6.031250,6.312500,5.750000,6.312500,3.933600,319600
1994-09-19,6.375000,6.406250,6.250000,6.250000,3.894652,187600
1994-09-26,6.250000,6.781250,6.218750,6.750000,4.206226,3610000
1994-10-03,6.750000,6.812500,6.656250,6.781250,4.225698,1444800
1994-10-10,6.781250,6.937500,6.781250,6.843750,4.264645,558000
1994-10-17,6.843750,6.843750,6.750000,6.750000,4.206226,496800
1994-10-24,6.781250,6.875000,6.750000,6.875000,4.284116,410400
1994-10-31,6.843750,6.968750,6.781250,6.906250,4.303591,925200
1994-11-07,6.937500,7.125000,6.843750,6.906250,4.341479,556000
1994-11-14,6.875000,7.125000,6.843750,6.906250,4.341479,745600
1994-11-21,6.937500,6.937500,6.687500,6.750000,4.243256,384800
1994-11-28,6.718750,6.718750,6.312500,6.406250,4.027164,540800
1994-12-05,6.562500,6.625000,6.218750,6.281250,3.948585,550400
1994-12-12,6.281250,6.687500,6.218750,6.656250,4.184320,340000
1994-12-19,6.656250,7.250000,6.625000,7.218750,4.537928,436800
1994-12-26,7.187500,7.218750,7.093750,7.187500,4.518281,240000
1995-01-02,7.125000,7.156250,6.750000,6.812500,4.282545,227200
1995-01-09,6.781250,6.781250,6.343750,6.468750,4.066452,401200
1995-01-16,6.468750,6.687500,6.468750,6.593750,4.145033,500000
1995-01-23,6.625000,6.718750,6.531250,6.687500,4.203967,111200
1995-01-30,6.656250,6.687500,6.156250,6.437500,4.046808,734800
1995-02-06,6.500000,6.812500,6.500000,6.656250,4.224076,273600
1995-02-13,6.625000,6.937500,6.625000,6.906250,4.382728,338800
1995-02-20,6.906250,7.156250,6.812500,7.125000,4.521548,412800
1995-02-27,7.156250,7.281250,6.906250,6.937500,4.402561,496400
1995-03-06,6.906250,6.906250,6.593750,6.843750,4.343066,366800
1995-03-13,6.843750,7.000000,6.812500,6.968750,4.422391,181200
1995-03-20,6.968750,7.343750,6.968750,7.250000,4.600874,530400
1995-03-27,7.250000,7.312500,7.156250,7.156250,4.541380,269200
1995-04-03,7.125000,7.125000,6.968750,6.968750,4.422391,150000
1995-04-10,7.000000,7.406250,6.968750,7.375000,4.680200,320800
1995-04-17,7.343750,7.531250,7.250000,7.406250,4.700028,820800
1995-04-24,7.406250,7.562500,7.187500,7.375000,4.680200,420800
1995-05-01,7.375000,7.687500,7.375000,7.687500,4.878514,503600
1995-05-08,7.625000,7.656250,7.437500,7.593750,4.857881,516800
1995-05-15,7.593750,7.593750,7.500000,7.562500,4.837889,166000
1995-05-22,7.562500,8.000000,7.562500,7.687500,4.917856,346000
1995-05-29,7.687500,7.718750,7.625000,7.687500,4.917856,224000
1995-06-05,7.656250,7.968750,7.656250,7.937500,5.077788,592000
1995-06-12,7.968750,8.000000,7.843750,7.906250,5.057793,318000
1995-06-19,7.906250,7.937500,7.687500,7.843750,5.017812,437200
1995-06-26,7.843750,8.031250,7.781250,8.031250,5.137759,285200
1995-07-03,8.031250,8.125000,7.953125,7.968750,5.097776,263600
1995-07-10,7.937500,8.000000,7.781250,7.812500,4.997820,166800
1995-07-17,7.875000,7.937500,7.750000,7.812500,4.997820,161200
1995-07-24,7.843750,8.062500,7.812500,7.968750,5.097776,712800
1995-07-31,8.031250,8.312500,8.031250,8.156250,5.217724,428400
1995-08-07,8.156250,8.281250,8.125000,8.187500,5.283058,462400
1995-08-14,8.187500,8.343750,8.031250,8.125000,5.242731,616800
1995-08-21,8.125000,8.250000,8.093750,8.093750,5.222563,562000
1995-08-28,8.125000,8.187500,7.843750,7.968750,5.141906,357200
1995-09-04,7.906250,8.343750,7.906250,8.343750,5.383880,415600
1995-09-11,8.343750,8.468750,8.250000,8.468750,5.464537,233200
1995-09-18,8.437500,8.562500,8.343750,8.406250,5.424207,275200
1995-09-25,8.437500,8.468750,8.281250,8.281250,5.343550,190000
1995-10-02,8.250000,8.250000,7.906250,7.906250,5.101578,275200
1995-10-09,7.906250,8.250000,7.781250,8.250000,5.323386,475200
1995-10-16,8.250000,8.531250,8.250000,8.343750,5.383880,217600
1995-10-23,8.375000,8.562500,8.062500,8.500000,5.484700,642800
1995-10-30,8.500000,8.843750,8.500000,8.843750,5.706511,1029200
1995-11-06,8.843750,8.875000,8.718750,8.718750,5.671223,486000
1995-11-13,8.750000,8.812500,8.687500,8.781250,5.711875,1365200
1995-11-20,8.812500,8.812500,8.593750,8.750000,5.691547,357600
1995-11-27,8.718750,9.125000,8.718750,9.125000,5.935472,345200
1995-12-04,9.156250,9.562500,9.156250,9.406250,6.118411,636800
1995-12-11,9.406250,9.468750,9.031250,9.062500,5.894815,491200
1995-12-18,9.062500,9.062500,8.781250,9.000000,5.854163,499600
1995-12-25,9.000000,9.343750,9.000000,9.343750,6.077762,524000
1996-01-01,9.281250,9.312500,9.093750,9.218750,5.996450,377200
1996-01-08,9.187500,9.187500,8.812500,8.875000,5.772855,305200
1996-01-15,8.812500,8.906250,8.687500,8.750000,5.691547,364800
1996-01-22,8.750000,9.250000,8.750000,9.250000,6.016778,578400
1996-01-29,9.218750,9.406250,9.187500,9.375000,6.098086,722400
1996-02-05,9.343750,9.406250,9.281250,9.343750,6.077762,270800
1996-02-12,9.375000,9.406250,9.218750,9.281250,6.082519,432000
1996-02-19,9.218750,9.468750,9.187500,9.406250,6.164439,470800
1996-02-26,9.343750,9.468750,9.062500,9.312500,6.103000,1140000
1996-03-04,9.343750,9.437500,9.187500,9.281250,6.082519,806400
1996-03-11,9.281250,9.718750,9.281250,9.500000,6.225884,764400
1996-03-18,9.531250,9.531250,9.312500,9.406250,6.164439,776000
1996-03-25,9.406250,10.468750,9.406250,10.375000,6.799317,958000
1996-04-01,10.375000,10.781250,10.375000,10.656250,6.983634,1418000
1996-04-08,10.593750,10.750000,10.125000,10.250000,6.717398,1722800
1996-04-15,10.281250,10.343750,9.812500,9.937500,6.512598,1111600
1996-04-22,9.937500,9.937500,9.375000,9.375000,6.143961,443200
1996-04-29,9.343750,9.656250,9.156250,9.593750,6.287319,1989600
1996-05-06,9.593750,9.656250,9.500000,9.562500,6.266841,1368400
1996-05-13,9.562500,9.625000,9.343750,9.406250,6.209747,479200
1996-05-20,9.375000,9.968750,9.375000,9.968750,6.581099,1003200
1996-05-27,9.968750,10.593750,9.968750,10.593750,6.993707,781200
1996-06-03,10.562500,10.593750,10.406250,10.406250,6.869922,486000
1996-06-10,10.375000,10.375000,9.843750,9.937500,6.560469,489600
1996-06-17,9.031250,9.156250,7.875000,7.968750,5.260753,3796400
1996-06-24,8.000000,8.000000,7.250000,7.562500,4.992556,1210400
1996-07-01,7.593750,8.812500,7.593750,8.500000,5.611468,1512800
1996-07-08,8.500000,8.500000,8.125000,8.312500,5.487689,535200
1996-07-15,8.250000,8.312500,7.875000,8.218750,5.425795,659200
1996-07-22,8.218750,8.218750,7.937500,7.968750,5.260753,553600
1996-07-29,7.937500,8.687500,7.937500,8.593750,5.673362,504800
1996-08-05,8.562500,9.156250,8.500000,9.000000,5.990891,1360800
1996-08-12,9.000000,9.125000,8.937500,9.125000,6.074099,169600
1996-08-19,9.156250,9.281250,8.718750,8.718750,5.803677,233600
1996-08-26,8.750000,8.812500,8.625000,8.750000,5.824479,85200
1996-09-02,8.750000,8.750000,8.593750,8.718750,5.803677,206400
1996-09-09,8.750000,8.812500,8.187500,8.406250,5.595659,889200
1996-09-16,8.406250,8.500000,8.062500,8.093750,5.387643,481200
1996-09-23,8.125000,8.187500,7.906250,8.062500,5.366843,862800
1996-09-30,8.062500,8.406250,8.031250,8.156250,5.429247,592400
1996-10-07,8.156250,8.187500,7.812500,8.031250,5.346038,694400
1996-10-14,8.000000,8.156250,7.875000,7.937500,5.283634,408400
1996-10-21,7.937500,8.031250,7.625000,7.968750,5.304437,491600
1996-10-28,7.937500,8.187500,7.843750,8.156250,5.429247,435200
1996-11-04,8.156250,8.687500,8.156250,8.562500,5.749585,589600
1996-11-11,8.531250,8.812500,8.531250,8.718750,5.854506,523600
1996-11-18,8.687500,9.031250,8.625000,8.625000,5.791554,728400
1996-11-25,8.562500,8.875000,8.562500,8.625000,5.791554,763200
1996-12-02,8.656250,8.906250,8.562500,8.656250,5.812540,496400
1996-12-09,8.656250,8.750000,8.218750,8.250000,5.539749,527200
1996-12-16,8.250000,8.343750,8.187500,8.281250,5.560734,1206800
1996-12-23,8.281250,8.500000,8.250000,8.500000,5.707619,300000
1996-12-30,8.406250,8.843750,8.406250,8.687500,5.833521,666000
1997-01-06,8.750000,9.000000,8.750000,8.906250,5.980412,577200
1997-01-13,8.875000,8.906250,8.625000,8.750000,5.875492,779200
1997-01-20,8.687500,8.718750,8.406250,8.500000,5.707619,805200
1997-01-27,8.468750,8.468750,8.187500,8.375000,5.623685,900000
1997-02-03,8.750000,8.968750,8.687500,8.781250,5.896474,765200
1997-02-10,8.750000,9.156250,8.750000,8.937500,6.051977,788800
1997-02-17,8.843750,9.718750,8.718750,9.593750,6.496354,1179200
1997-02-24,9.562500,9.937500,9.531250,9.937500,6.729124,741600
1997-03-03,9.906250,10.156250,9.906250,10.000000,6.771444,729200
1997-03-10,10.000000,10.031250,9.468750,9.562500,6.475190,435600
1997-03-17,9.593750,10.031250,9.375000,10.000000,6.771444,464800
1997-03-24,9.968750,9.968750,9.656250,9.656250,6.538678,695600
1997-03-31,9.656250,9.656250,9.312500,9.500000,6.432874,540400
1997-04-07,9.531250,9.562500,9.343750,9.375000,6.348230,367600
1997-04-14,9.406250,9.406250,8.781250,9.375000,6.348230,1259200
1997-04-21,9.375000,10.093750,9.375000,9.906250,6.707962,1352400
1997-04-28,9.968750,10.187500,9.812500,10.062500,6.813765,1034400
1997-05-05,10.062500,10.406250,9.937500,10.250000,6.940727,538000
1997-05-12,10.250000,10.531250,10.187500,10.250000,6.989350,436400
1997-05-19,10.250000,10.843750,10.250000,10.843750,7.394224,525600
1997-05-26,10.843750,11.093750,10.843750,11.093750,7.564694,295600
1997-06-02,11.125000,11.406250,11.125000,11.375000,7.756472,873600
1997-06-09,11.312500,11.437500,10.687500,11.000000,7.500765,387600
1997-06-16,11.000000,11.031250,10.843750,10.937500,7.458151,556000
1997-06-23,10.968750,11.093750,10.718750,11.093750,7.564694,469200
1997-06-30,11.078125,11.468750,11.078125,11.359375,7.745819,419600
1997-07-07,11.359375,11.484375,11.125000,11.453125,7.809745,438400
1997-07-14,11.453125,11.718750,11.218750,11.437500,7.799093,449600
1997-07-21,11.406250,12.078125,11.250000,12.000000,8.182659,1130400
1997-07-28,12.062500,13.015625,12.000000,12.937500,8.821925,862000
1997-08-04,12.937500,13.906250,12.937500,13.562500,9.306645,1016000
1997-08-11,13.593750,13.937500,13.562500,13.625000,9.349532,706400
1997-08-18,13.578125,13.609375,13.125000,13.406250,9.199419,631200
1997-08-25,13.406250,14.062500,13.406250,14.062500,9.649746,477600
1997-09-01,14.062500,14.781250,13.937500,13.953125,9.574690,745600
1997-09-08,13.953125,14.015625,13.531250,14.000000,9.606859,976400
1997-09-15,13.968750,14.250000,13.812500,14.125000,9.692633,508400
1997-09-22,14.062500,14.281250,13.812500,13.984375,9.596132,485200
1997-09-29,14.046875,14.250000,13.828125,14.000000,9.606859,485600
1997-10-06,14.031250,14.281250,13.968750,14.187500,9.735520,410800
1997-10-13,14.250000,14.500000,13.500000,13.531250,9.285201,501600
1997-10-20,13.375000,14.234375,13.375000,14.234375,9.767685,796000
1997-10-27,14.171875,14.218750,13.390625,13.734375,9.424585,640400
1997-11-03,13.703125,14.062500,13.453125,13.468750,9.296900,645200
1997-11-10,13.437500,13.562500,12.609375,13.156250,9.081193,419200
1997-11-17,13.250000,14.390625,13.250000,14.109375,9.739097,605600
1997-11-24,14.140625,14.250000,14.078125,14.250000,9.836164,131200
1997-12-01,14.250000,14.781250,14.250000,14.687500,10.138144,643200
1997-12-08,14.687500,14.687500,13.843750,14.093750,9.728305,452800
1997-12-15,14.031250,14.132800,13.375000,13.453125,9.286116,527600
1997-12-22,13.453125,13.500000,13.109375,13.203125,9.113548,533600
1997-12-29,13.203125,13.890625,13.109375,13.781250,9.512606,587200
1998-01-05,13.750000,13.750000,12.281250,12.296875,8.488001,967200
1998-01-12,12.234375,12.468750,12.171875,12.296875,8.488001,1120400
1998-01-19,12.312500,12.562500,11.984375,12.468750,8.606637,808400
1998-01-26,12.500000,13.187500,12.312500,12.750000,8.800779,1226800
1998-02-02,12.781250,13.937500,12.750000,13.703125,9.458675,1265200
1998-02-09,13.640625,14.078125,13.343750,13.734375,9.540107,465200
1998-02-16,13.781250,14.468750,13.781250,14.468750,10.050213,551200
1998-02-23,14.687500,14.687500,14.265625,14.421875,10.017660,714800
1998-03-02,14.421875,15.156250,14.421875,14.828125,10.299844,791600
1998-03-09,14.796875,15.437500,14.765625,15.250000,10.592883,763600
1998-03-16,15.234375,15.781250,15.187500,15.750000,10.940190,387200
1998-03-23,15.718750,15.906250,15.000000,15.015625,10.430089,480000
1998-03-30,15.015625,15.500000,14.953125,15.265625,10.603734,1166400
1998-04-06,15.265625,15.296875,14.750000,14.984375,10.408377,811200
1998-04-13,14.968750,15.156250,14.578125,14.687500,10.202161,707600
1998-04-20,14.750000,15.125000,14.000000,14.578125,10.126190,1037200
1998-04-27,14.562500,15.812500,14.187500,15.500000,10.766532,938000
1998-05-04,15.406250,15.703125,15.406250,15.671875,10.885923,505200
1998-05-11,15.687500,16.375000,15.687500,16.250000,11.346062,979600
1998-05-18,16.250000,16.437500,15.828125,15.828125,11.051496,946000
1998-05-25,15.890625,16.468750,15.875000,16.203125,11.313330,860000
1998-06-01,16.203125,16.453125,15.593750,15.859375,11.073316,360400
1998-06-08,15.890625,15.937500,14.812500,15.125000,10.560566,606400
1998-06-15,15.062500,15.109375,14.625000,14.703125,10.266004,1112400
1998-06-22,14.703125,15.250000,14.671875,15.046875,10.506015,483200
1998-06-29,15.046875,15.968750,15.046875,15.671875,10.942400,526400
1998-07-06,15.687500,16.125000,15.687500,16.078125,11.226049,476400
1998-07-13,16.140625,16.718750,16.140625,16.328125,11.400609,4096800
1998-07-20,16.312500,16.500000,16.312500,16.343750,11.411516,1941600
1998-07-27,16.312500,16.328125,15.000000,15.390625,10.746029,2035600
1998-08-03,15.406250,15.406250,14.703125,14.953125,10.495276,858000
1998-08-10,14.968750,15.031250,14.296875,15.031250,10.550111,620400
1998-08-17,15.031250,15.718750,14.875000,15.015625,10.539143,976400
1998-08-24,15.046875,15.781250,13.750000,13.968750,9.804364,563200
1998-08-31,14.218750,14.718750,13.156250,14.281250,10.023702,735600
1998-09-07,14.343750,14.656250,13.187500,13.406250,9.409561,308600
1998-09-14,13.343750,14.000000,12.812500,13.937500,9.782433,723600
1998-09-21,13.812500,14.031250,11.062500,12.000000,8.422544,2046600
1998-09-28,12.062500,12.187500,10.250000,11.000000,7.720664,2106800
1998-10-05,11.000000,11.250000,9.843750,10.312500,7.238123,1159600
1998-10-12,10.437500,11.750000,10.437500,11.625000,8.159335,1219800
1998-10-19,11.750000,15.000000,11.750000,15.000000,10.528180,840200
1998-10-26,14.875000,14.875000,12.687500,13.375000,9.387629,1033800
1998-11-02,13.500000,14.500000,13.500000,13.937500,9.811370,1203200
1998-11-09,13.968750,14.000000,13.625000,13.718750,9.657378,712000
1998-11-16,13.750000,13.750000,13.375000,13.750000,9.679375,833600
1998-11-23,13.750000,14.562500,13.750000,14.125000,9.943363,518000
1998-11-30,14.093750,14.468750,13.812500,14.437500,10.163344,1015800
1998-12-07,14.406250,15.062500,13.750000,13.937500,9.811370,706200
1998-12-14,14.000000,14.187500,12.500000,14.062500,9.899363,835600
1998-12-21,14.187500,15.062500,13.843750,13.968750,9.833365,629600
1998-12-28,14.000000,14.187500,13.531250,14.031250,9.877364,651800
1999-01-04,13.812500,14.375000,13.031250,13.375000,9.415397,679000
1999-01-11,13.375000,13.437500,12.000000,13.437500,9.459390,963200
1999-01-18,13.312500,13.843750,12.781250,13.625000,9.591381,408400
1999-01-25,13.562500,13.875000,13.500000,13.656250,9.613383,771200
1999-02-01,13.656250,14.468750,13.218750,13.625000,9.591381,617200
1999-02-08,13.500000,13.812500,12.000000,12.031250,8.494333,596800
1999-02-15,12.156250,13.062500,11.562500,12.812500,9.045918,864000
1999-02-22,13.187500,14.437500,13.062500,13.687500,9.663685,597000
1999-03-01,13.812500,14.125000,13.187500,13.625000,9.619560,434600
1999-03-08,13.687500,14.812500,13.375000,14.562500,10.281457,663800
1999-03-15,14.437500,14.625000,13.687500,13.750000,9.707813,610200
1999-03-22,13.750000,13.750000,12.437500,12.906250,9.112107,488600
1999-03-29,12.968750,13.500000,12.500000,12.812500,9.045918,445200
1999-04-05,12.875000,13.125000,11.906250,12.812500,9.045918,1107400
1999-04-12,12.687500,14.687500,12.375000,14.343750,10.127010,641600
1999-04-19,14.250000,15.000000,12.781250,13.500000,9.531305,708800
1999-04-26,13.562500,14.500000,12.812500,14.000000,9.884315,508400
1999-05-03,13.687500,14.375000,12.750000,12.812500,9.045918,606600
1999-05-10,13.031250,14.812500,13.031250,14.750000,10.443672,715600
1999-05-17,14.625000,15.750000,14.437500,14.687500,10.399421,837200
1999-05-24,14.718750,14.718750,13.718750,13.750000,9.735628,900000
1999-05-31,13.812500,14.843750,13.625000,13.718750,9.713501,725200
1999-06-07,13.843750,15.187500,13.687500,14.812500,10.487926,352000
1999-06-14,14.937500,15.250000,14.500000,14.968750,10.598560,581000
1999-06-21,15.000000,15.000000,13.937500,14.093750,9.979019,742200
1999-06-28,14.031250,15.437500,14.031250,15.281250,10.819822,1096400
1999-07-05,15.062500,15.062500,13.500000,14.062500,9.956895,608400
1999-07-12,14.250000,15.000000,14.187500,14.812500,10.487926,444800
1999-07-19,14.781250,15.000000,13.312500,14.687500,10.399421,838400
1999-07-26,14.687500,14.781250,14.000000,14.468750,10.244536,1015200
1999-08-02,14.406250,14.500000,13.625000,14.062500,9.992500,516600
1999-08-09,14.125000,14.312500,13.406250,13.812500,9.814856,600600
1999-08-16,13.843750,14.000000,12.968750,13.093750,9.304126,1139200
1999-08-23,13.156250,13.156250,12.406250,12.562500,8.926630,868800
1999-08-30,12.593750,13.187500,12.500000,13.187500,9.370745,742200
1999-09-06,13.187500,13.562500,13.187500,13.375000,9.503978,349600
1999-09-13,13.375000,13.375000,11.718750,12.625000,8.971045,873200
1999-09-20,12.656250,12.843750,11.250000,11.375000,8.082825,1284400
1999-09-27,11.437500,13.375000,11.437500,12.781250,9.082073,832400
1999-10-04,12.750000,13.000000,11.937500,12.875000,9.148693,612000
1999-10-11,12.875000,13.187500,12.812500,13.062500,9.281928,454200
1999-10-18,13.062500,13.593750,12.031250,12.625000,8.971045,862400
1999-10-25,12.593750,13.437500,12.000000,13.437500,9.548386,1003600
1999-11-01,13.375000,14.312500,13.375000,13.937500,9.942384,739200
1999-11-08,13.968750,13.968750,13.250000,13.500000,9.630291,339200
1999-11-15,13.468750,14.625000,13.375000,13.968750,9.964674,689000
1999-11-22,13.750000,14.062500,13.031250,13.437500,9.585704,707800
1999-11-29,13.500000,14.125000,13.093750,13.843750,9.875505,980400
1999-12-06,13.781250,14.062500,12.625000,13.156250,9.385075,742000
1999-12-13,13.125000,14.125000,12.875000,14.000000,9.986967,1237400
1999-12-20,13.875000,13.906250,12.687500,12.968750,9.251324,547800
1999-12-27,12.968750,13.125000,12.343750,12.562500,8.961521,772000
2000-01-03,12.562500,14.312500,11.687500,13.031250,9.295909,1291800
2000-01-10,12.906250,13.687500,12.750000,13.375000,9.541123,827600
2000-01-17,13.125000,13.421850,12.562500,12.750000,9.095273,415600
2000-01-24,12.687500,13.062500,11.187500,11.187500,7.980658,1220000
2000-01-31,11.250000,13.000000,11.000000,11.562500,8.248164,1325800
2000-02-07,11.406250,12.000000,11.031250,11.125000,7.936071,595800
2000-02-14,11.312500,12.093750,10.750000,11.781250,8.440714,1339800
2000-02-21,11.750000,12.187500,11.375000,11.656250,8.351155,1567800
2000-02-28,11.625000,12.718750,11.062500,12.406250,8.888493,1618400
2000-03-06,12.375000,12.375000,10.062500,11.312500,8.104874,1225600
2000-03-13,11.250000,12.500000,10.906250,12.312500,8.821330,1931400
2000-03-20,12.250000,13.468750,12.062500,12.843750,9.201944,806600
2000-03-27,12.625000,13.812500,12.125000,13.343750,9.560172,787800
2000-04-03,13.437500,13.437500,12.125000,12.750000,9.134776,958600
2000-04-10,12.687500,13.218750,11.937500,12.093750,8.664602,545800
2000-04-17,12.062500,12.937500,11.687500,12.937500,9.269111,452800
2000-04-24,12.937500,14.250000,12.875000,14.250000,10.209457,1012200
2000-05-01,14.000000,14.000000,13.218750,13.625000,9.761671,574800
2000-05-08,13.625000,13.750000,12.875000,13.656250,9.818512,638400
2000-05-15,13.593750,13.750000,13.281250,13.718750,9.863448,600200
2000-05-22,13.718750,13.750000,13.250000,13.437500,9.661232,652400
2000-05-29,13.375000,13.750000,13.250000,13.750000,9.885916,581600
2000-06-05,13.750000,13.750000,13.250000,13.625000,9.796043,400600
2000-06-12,13.531250,14.125000,13.468750,14.093750,10.133062,1014200
2000-06-19,14.125000,14.468750,13.875000,14.062500,10.110598,915000
2000-06-26,13.750000,14.656250,13.500000,13.500000,9.706173,1248600
2000-07-03,13.625000,14.843750,13.625000,14.437500,10.380209,597000
2000-07-10,14.437500,15.000000,14.000000,14.312500,10.290340,626800
2000-07-17,14.187500,14.500000,11.687500,12.156250,8.740048,1372600
2000-07-24,12.156250,12.687500,12.125000,12.156250,8.740048,1793400
2000-07-31,12.156250,12.593750,12.156250,12.406250,8.956163,728200
2000-08-07,12.406250,13.093750,12.343750,12.812500,9.249439,554200
2000-08-14,12.875000,12.937500,11.968750,12.093750,8.730566,650600
2000-08-21,12.156250,12.281250,11.125000,11.656250,8.414732,1164600
2000-08-28,11.937500,11.968750,11.437500,11.781250,8.504972,1092000
2000-09-04,11.906250,12.312500,11.531250,12.156250,8.775685,824400
2000-09-11,12.281250,12.687500,12.062500,12.312500,8.888483,831600
2000-09-18,12.187500,12.187500,10.937500,11.500000,8.301938,1053200
2000-09-25,11.375000,12.093750,11.250000,11.968750,8.640329,902000
2000-10-02,12.093750,12.281250,11.156250,11.156250,8.053780,896600
2000-10-09,11.031250,11.625000,10.718750,11.625000,8.392175,981200
2000-10-16,11.625000,11.625000,9.687500,9.937500,7.173958,1995800
2000-10-23,9.937500,10.218750,9.750000,10.156250,7.331868,1303800
2000-10-30,10.125000,10.468750,9.937500,10.437500,7.534909,1653400
2000-11-06,10.406250,11.562500,10.343750,11.125000,8.070953,3075200
2000-11-13,11.125000,12.500000,11.125000,12.250000,8.887112,1478000
2000-11-20,12.250000,12.531250,11.562500,12.375000,8.977802,498800
2000-11-27,12.437500,12.781250,12.125000,12.562500,9.113832,605400
2000-12-04,12.562500,12.937500,12.500000,12.718750,9.227188,859000
2000-12-11,12.625000,13.781250,12.562500,13.531250,9.816638,986800
2000-12-18,13.531250,14.187500,13.500000,14.187500,10.292734,1079600
2000-12-25,14.187500,15.062500,13.937500,14.687500,10.655473,578200
2001-01-01,14.687500,14.687500,13.625000,13.843750,10.043350,751000
2001-01-08,13.843750,14.781250,13.218750,14.750000,10.700812,1196800
2001-01-15,14.687500,14.812500,14.031250,14.093750,10.224719,819600
2001-01-22,14.125000,14.843750,14.000000,14.281250,10.360746,664800
2001-01-29,14.400000,15.165000,14.225000,14.355000,10.414250,1266200
2001-02-05,14.325000,14.800000,14.110000,14.250000,10.338078,707400
2001-02-12,14.335000,14.780000,14.240000,14.300000,10.410609,740600
2001-02-19,14.305000,15.000000,14.255000,14.690000,10.694536,643000
2001-02-26,14.685000,15.115000,14.225000,14.560000,10.599897,963200
2001-03-05,14.560000,15.675000,14.560000,15.400000,11.211428,836400
2001-03-12,15.325000,15.800000,14.600000,14.600000,10.629016,1728400
2001-03-19,15.075000,15.500000,14.255000,14.790000,10.767336,1573000
2001-03-26,14.665000,15.450000,14.440000,15.235000,11.091304,717800
2001-04-02,15.235000,15.500000,14.625000,15.275000,11.120421,381400
2001-04-09,15.325000,15.700000,15.055000,15.300000,11.138624,392800
2001-04-16,15.200000,16.254999,15.175000,15.950000,11.611836,803200
2001-04-23,15.825000,16.400000,15.515000,15.950000,11.611836,1630000
2001-04-30,15.800000,16.750000,15.500000,16.600000,12.085046,825200
2001-05-07,16.594999,17.940001,16.250000,17.334999,12.659822,1137600
2001-05-14,17.340000,18.605000,17.075001,17.725000,12.944636,1329600
2001-05-21,17.725000,18.495001,16.799999,17.205000,12.564881,796200
2001-05-28,17.200001,17.200001,16.375000,16.629999,12.144956,582600
2001-06-04,16.549999,17.700001,16.450001,17.424999,12.725548,510800
2001-06-11,17.424999,17.575001,16.725000,17.049999,12.451682,603000
2001-06-18,17.250000,18.000000,16.540001,16.700001,12.196080,1150000
2001-06-25,16.760000,16.905001,15.910000,16.215000,11.841879,982800
2001-07-02,16.325001,16.395000,15.625000,15.675000,11.447515,453000
2001-07-09,15.700000,16.094999,15.250000,15.855000,11.578971,860400
2001-07-16,15.730000,16.795000,15.730000,16.465000,12.024458,455400
2001-07-23,16.764999,17.049999,16.125000,16.570000,12.101134,893800
2001-07-30,16.570000,16.775000,16.100000,16.750000,12.276415,491000
2001-08-06,16.655001,16.809999,16.405001,16.725000,12.258089,512600
2001-08-13,16.764999,17.674999,16.625000,17.584999,12.888399,623600
2001-08-20,17.584999,18.125000,17.200001,17.870001,13.097286,804000
2001-08-27,17.920000,18.500000,17.620001,17.895000,13.115606,750600
2001-09-03,17.895000,18.350000,17.100000,17.700001,12.972691,835400
2001-09-10,17.610001,17.629999,17.299999,17.500000,12.826098,86200
2001-09-17,17.375000,17.375000,14.250000,15.030000,11.015789,823200
2001-09-24,15.130000,16.250000,15.100000,15.900000,11.653429,919200
2001-10-01,15.900000,16.500000,15.260000,16.325001,11.964920,763400
2001-10-08,16.375000,17.225000,15.760000,17.010000,12.466969,497200
2001-10-15,16.950001,17.370001,13.550000,14.500000,10.627341,2824600
2001-10-22,14.800000,15.245000,14.665000,14.990000,10.986468,786200
2001-10-29,15.010000,15.635000,14.960000,15.390000,11.279636,551800
2001-11-05,15.390000,16.150000,15.340000,15.490000,11.398556,675800
2001-11-12,15.300000,16.549999,15.225000,16.184999,11.909982,629000
2001-11-19,16.100000,16.500000,15.950000,16.450001,12.104985,1158600
2001-11-26,16.410000,16.575001,15.850000,16.400000,12.068193,953000
2001-12-03,16.400000,17.165001,16.225000,17.000000,12.509714,1160600
2001-12-10,16.924999,17.125000,16.219999,16.250000,11.957814,1167800
2001-12-17,16.299999,17.200001,16.290001,17.150000,12.620091,882600
2001-12-24,17.090000,17.450001,16.965000,16.965000,12.483959,271800
2001-12-31,17.000000,17.709999,16.850000,17.365000,12.778306,846800
2002-01-07,17.150000,17.639999,14.945000,15.195000,11.181475,3085800
2002-01-14,15.250000,15.250000,14.875000,14.955000,11.004869,2311400
2002-01-21,14.975000,15.400000,14.925000,15.265000,11.232986,1951000
2002-01-28,15.315000,16.315001,15.125000,15.975000,11.755454,1212000
2002-02-04,15.975000,16.575001,15.670000,16.575001,12.196972,715600
2002-02-11,16.500000,17.070000,16.200001,16.895000,12.479320,1199800
2002-02-18,16.775000,17.125000,16.625000,16.915001,12.494092,995000
2002-02-25,16.850000,17.559999,16.700001,17.290001,12.771082,914600
2002-03-04,17.325001,17.500000,16.950001,17.240000,12.734145,1589200
2002-03-11,17.150000,17.150000,16.559999,16.950001,12.519944,887200
2002-03-18,17.000000,17.275000,16.600000,16.680000,12.320510,1079600
2002-03-25,16.684999,17.594999,16.650000,17.525000,12.944662,741600
2002-04-01,17.500000,17.924999,17.280001,17.799999,13.147781,816000
2002-04-08,17.799999,18.775000,17.639999,18.760000,13.856882,814400
2002-04-15,18.700001,19.000000,17.900000,17.934999,13.247504,651400
2002-04-22,17.934999,18.450001,17.559999,18.195000,13.439546,933400
2002-04-29,18.170000,19.370001,18.025000,18.770000,13.864265,764000
2002-05-06,18.695000,18.850000,18.245001,18.325001,13.580361,561800
2002-05-13,18.424999,18.900000,18.219999,18.559999,13.754515,736200
2002-05-20,18.375000,18.504999,17.745001,18.055000,13.380267,769600
2002-05-27,18.000000,18.924999,17.660000,18.690001,13.850858,698200
2002-06-03,18.690001,18.700001,17.745001,18.350000,13.598882,826800
2002-06-10,18.325001,18.415001,16.485001,16.965000,12.572483,775800
2002-06-17,17.090000,17.750000,17.090000,17.400000,12.894854,573000
2002-06-24,17.350000,17.600000,15.375000,15.375000,11.394157,2018200
2002-07-01,15.560000,16.299999,15.205000,15.775000,11.690595,757600
2002-07-08,15.900000,15.900000,14.500000,14.675000,10.875403,655600
2002-07-15,14.625000,14.630000,13.300000,13.950000,10.338117,893800
2002-07-22,13.940000,14.210000,13.300000,14.100000,10.449277,1339800
2002-07-29,14.225000,15.485000,14.225000,14.700000,10.940936,966800
2002-08-05,14.695000,15.465000,14.300000,15.375000,11.443323,489200
2002-08-12,15.350000,15.635000,14.625000,15.575000,11.592183,284600
2002-08-19,15.575000,16.000000,15.400000,15.720000,11.700105,523400
2002-08-26,15.670000,16.150000,15.400000,16.049999,11.945717,568400
2002-09-02,16.000000,16.075001,15.125000,15.340000,11.417275,524200
2002-09-09,15.390000,15.820000,15.025000,15.200000,11.313081,371200
2002-09-16,15.190000,15.250000,14.450000,14.590000,10.859065,804200
2002-09-23,14.510000,14.510000,13.425000,13.495000,10.044078,942600
2002-09-30,13.475000,13.785000,12.900000,12.940000,9.630999,1137800
2002-10-07,12.875000,13.370000,12.420000,13.135000,9.776135,586000
2002-10-14,13.170000,13.320000,12.700000,13.075000,9.731479,982200
2002-10-21,13.000000,14.050000,12.945000,13.975000,10.401332,957400
2002-10-28,13.945000,14.045000,13.670000,14.025000,10.438541,522800
2002-11-04,14.000000,14.500000,14.000000,14.100000,10.539616,506400
2002-11-11,14.090000,14.600000,14.000000,14.350000,10.726489,479800
2002-11-18,14.440000,14.640000,14.155000,14.470000,10.816190,533800
2002-11-25,14.375000,15.175000,14.300000,14.940000,11.167509,450000
2002-12-02,15.040000,15.750000,15.040000,15.595000,11.657116,559600
2002-12-09,15.500000,15.650000,14.885000,15.175000,11.343168,483000
2002-12-16,15.175000,16.500000,15.050000,16.500000,12.333596,1772000
2002-12-23,16.250000,16.504999,15.000000,15.375000,11.492666,1117400
2002-12-30,15.415000,15.665000,15.225000,15.500000,11.586107,513000
2003-01-06,15.625000,15.745000,15.125000,15.300000,11.436610,488400
2003-01-13,15.325000,15.510000,14.900000,15.125000,11.305796,471400
2003-01-20,15.125000,15.145000,14.465000,14.565000,10.887198,305800
2003-01-27,14.450000,14.570000,13.880000,14.340000,10.719015,449600
2003-02-03,14.310000,14.375000,13.620000,13.625000,10.184559,489400
2003-02-10,13.665000,14.935000,13.255000,14.675000,11.015518,784400
2003-02-17,14.675000,15.115000,14.510000,15.035000,11.285746,1076800
2003-02-24,15.035000,15.175000,14.575000,15.150000,11.372064,769000
2003-03-03,15.135000,15.325000,14.725000,15.165000,11.383325,814000
2003-03-10,15.190000,15.250000,14.760000,15.175000,11.390829,1212400
2003-03-17,15.200000,16.510000,15.000000,16.510000,12.392923,777400
2003-03-24,16.475000,16.475000,15.830000,16.200001,12.160228,550200
2003-03-31,16.174999,16.500000,15.505000,15.925000,11.953805,777200
2003-04-07,16.000000,16.485001,15.325000,15.450000,11.597254,521800
2003-04-14,15.500000,16.059999,15.460000,15.650000,11.747380,605800
2003-04-21,15.775000,16.915001,15.775000,16.205000,12.163980,944400
2003-04-28,16.100000,17.355000,16.100000,17.065001,12.809525,1168600
2003-05-05,17.049999,17.665001,17.049999,17.665001,13.307816,892400
2003-05-12,17.575001,17.594999,17.350000,17.400000,13.108182,667200
2003-05-19,17.379999,17.385000,17.040001,17.219999,12.972580,698600
2003-05-26,17.275000,17.615000,17.215000,17.500000,13.183515,344000
2003-06-02,17.555000,18.010000,17.549999,17.915001,13.496150,434800
2003-06-09,17.910000,18.049999,17.600000,17.674999,13.315344,632200
2003-06-16,17.674999,18.250000,17.545000,17.549999,13.221177,694000
2003-06-23,17.549999,17.750000,17.000000,17.549999,13.221177,561400
2003-06-30,17.549999,18.295000,17.549999,18.200001,13.710859,458000
2003-07-07,18.225000,18.650000,18.150000,18.225000,13.729688,518800
2003-07-14,18.299999,18.950001,18.075001,18.350000,13.823858,723800
2003-07-21,18.350000,18.875000,18.290001,18.625000,14.031029,745000
2003-07-28,18.625000,18.975000,18.299999,18.575001,14.046153,740400
2003-08-04,18.350000,18.570000,17.799999,18.375000,13.894913,453600
2003-08-11,18.325001,19.000000,18.000000,19.000000,14.367527,404200
2003-08-18,19.049999,19.549999,18.900000,18.950001,14.329722,653600
2003-08-25,18.975000,19.600000,18.625000,19.580000,14.806114,386000
2003-09-01,19.500000,19.850000,18.950001,19.215000,14.530113,404800
2003-09-08,19.299999,19.725000,18.799999,19.450001,14.707812,476600
2003-09-15,19.475000,19.500000,18.620001,18.799999,14.216286,608000
2003-09-22,18.805000,19.094999,17.855000,17.855000,13.501694,989400
2003-09-29,17.955000,19.510000,17.955000,19.500000,14.745615,624200
2003-10-06,19.450001,19.719999,18.975000,19.475000,14.726717,577000
2003-10-13,19.490000,19.900000,18.375000,18.650000,14.102859,1046400
2003-10-20,18.650000,18.650000,17.930000,18.010000,13.618901,750600
2003-10-27,17.975000,18.025000,17.799999,17.900000,13.535727,568200
2003-11-03,17.900000,18.590000,17.690001,18.250000,13.854236,1085600
2003-11-10,18.200001,18.299999,17.875000,18.125000,13.759346,459400
2003-11-17,18.125000,18.174999,17.370001,17.514999,13.296276,769200
2003-11-24,17.520000,17.535000,17.250000,17.455000,13.250720,661600
2003-12-01,17.500000,18.525000,17.450001,18.400000,13.968105,1878000
2003-12-08,18.325001,18.500000,17.955000,18.395000,13.964307,1400200
2003-12-15,18.650000,19.115000,18.415001,19.115000,14.510893,1388800
2003-12-22,19.065001,19.385000,19.065001,19.385000,14.715857,481800
2003-12-29,19.500000,19.740000,19.150000,19.280001,14.636150,729000
2004-01-05,19.280001,20.125000,19.230000,20.000000,15.182719,1322400
2004-01-12,19.950001,20.275000,19.504999,19.850000,15.068857,715200
2004-01-19,19.799999,20.530001,19.770000,19.910000,15.114399,834600
2004-01-26,19.940001,20.400000,19.750000,20.035000,15.209289,598800
2004-02-02,20.049999,20.150000,19.580000,20.010000,15.190308,499800
2004-02-09,20.125000,21.000000,20.125000,20.264999,15.437829,564800
2004-02-16,20.389999,20.600000,20.000000,20.150000,15.350227,529000
2004-02-23,20.125000,20.510000,19.750000,20.225000,15.407362,732600
2004-03-01,20.325001,20.535000,20.025000,20.225000,15.407362,590000
2004-03-08,20.240000,20.340000,19.125000,19.200001,14.626520,657200
2004-03-15,19.225000,19.450001,18.625000,19.195000,14.622711,778000
2004-03-22,19.125000,19.275000,18.355000,18.809999,14.329417,955800
2004-03-29,18.875000,19.590000,18.870001,19.590000,14.923625,743000
2004-04-05,19.625000,20.000000,19.575001,19.709999,15.015032,477200
2004-04-12,19.760000,20.389999,19.250000,20.070000,15.289282,562800
2004-04-19,20.100000,21.290001,20.000000,20.605000,15.696841,951600
2004-04-26,20.500000,20.775000,19.174999,19.650000,14.969336,1084400
2004-05-03,19.549999,20.270000,19.510000,19.660000,15.029552,945600
2004-05-10,19.625000,19.674999,18.850000,19.225000,14.697004,797600
2004-05-17,19.125000,19.825001,18.799999,19.625000,15.002792,873800
2004-05-24,19.700001,20.459999,19.700001,20.325001,15.537924,989800
2004-05-31,20.174999,20.629999,20.049999,20.389999,15.587615,729800
2004-06-07,20.350000,20.850000,20.299999,20.434999,15.622015,948800
2004-06-14,20.500000,21.580000,20.475000,21.530001,16.459110,1248200
2004-06-21,21.450001,22.100000,21.275000,21.355000,16.325331,2577800
2004-06-28,21.405001,22.035000,21.230000,21.555000,16.478228,1176000
2004-07-05,21.575001,21.660000,20.875000,21.094999,16.126568,675800
2004-07-12,21.100000,21.690001,20.825001,21.180000,16.191555,952200
2004-07-19,21.400000,22.430000,21.174999,21.209999,16.214479,1646400
2004-07-26,21.309999,21.365000,20.775000,21.155001,16.285400,1678800
2004-08-02,21.055000,21.629999,20.475000,20.475000,15.761933,1033000
2004-08-09,20.480000,21.480000,20.455000,20.955000,16.131437,887200
2004-08-16,20.905001,22.225000,20.885000,22.190001,17.082153,816000
2004-08-23,22.340000,22.850000,21.975000,22.730000,17.497858,935800
2004-08-30,22.650000,23.450001,22.174999,22.950001,17.667212,749800
2004-09-06,22.950001,23.424999,22.514999,22.850000,17.590235,769200
2004-09-13,22.799999,23.150000,22.600000,22.764999,17.524801,677000
2004-09-20,22.600000,23.275000,22.309999,22.415001,17.255369,631000
2004-09-27,22.250000,22.799999,21.665001,22.799999,17.551743,1050200
2004-10-04,22.625000,23.155001,22.299999,22.500000,17.320801,1008600
2004-10-11,22.504999,23.540001,22.250000,23.000000,17.705704,1204200
2004-10-18,22.875000,23.875000,22.754999,23.004999,17.709551,1247000
2004-10-25,22.900000,24.004999,22.809999,23.459999,18.059813,1030000
2004-11-01,23.500000,24.985001,23.299999,24.815001,19.226192,1053000
2004-11-08,24.799999,25.025000,24.010000,25.000000,19.369524,896000
2004-11-15,25.000000,25.469999,24.825001,24.875000,19.272673,874800
2004-11-22,24.750000,25.770000,24.750000,25.555000,19.799524,602200
2004-11-29,25.655001,26.959999,25.500000,26.254999,20.341871,1028400
2004-12-06,26.254999,26.254999,25.125000,25.900000,20.066824,1321000
2004-12-13,26.000000,26.920000,25.924999,26.250000,20.337997,1002600
2004-12-20,26.375000,27.445000,26.120001,26.934999,20.868721,656000
2004-12-27,26.875000,27.110001,26.365000,26.389999,20.446466,553400
2005-01-03,26.475000,27.445000,24.395000,24.500000,18.982132,1252200
2005-01-10,24.375000,25.240000,23.900000,24.495001,18.978249,1115600
2005-01-17,24.400000,24.980000,24.000000,24.299999,18.827173,661400
2005-01-24,24.299999,24.424999,23.639999,23.775000,18.420418,694000
2005-01-31,23.825001,25.100000,23.825001,25.075001,19.427637,855000
2005-02-07,25.325001,25.325001,24.100000,24.844999,19.371643,837800
2005-02-14,24.750000,25.230000,24.469999,24.950001,19.453524,1019600
2005-02-21,24.825001,25.955000,24.450001,25.955000,20.237112,838800
2005-02-28,25.875000,26.674999,25.355000,26.410000,20.591881,968600
2005-03-07,26.350000,26.629999,25.430000,25.775000,20.096771,831000
2005-03-14,25.674999,26.400000,25.264999,25.584999,19.948626,1110000
2005-03-21,25.650000,25.905001,24.660000,24.945000,19.449621,695400
2005-03-28,25.025000,26.600000,24.805000,26.500000,20.662056,1731600
2005-04-04,26.559999,27.434999,26.200001,26.379999,20.568487,1121000
2005-04-11,26.440001,26.684999,24.350000,24.495001,19.098753,1873200
2005-04-18,24.250000,25.510000,23.844999,24.674999,19.239105,1531200
2005-04-25,24.655001,24.934999,23.500000,24.115000,18.802467,1383200
2005-05-02,24.150000,25.530001,24.090000,25.500000,20.007397,1183200
2005-05-09,25.535000,25.745001,24.504999,24.665001,19.352261,1114800
2005-05-16,24.684999,26.305000,24.584999,25.459999,19.976015,1081800
2005-05-23,25.465000,25.955000,24.930000,25.580000,20.070164,982800
2005-05-30,25.495001,25.495001,24.500000,24.674999,19.360106,954200
2005-06-06,24.715000,25.320000,23.975000,24.510000,19.230642,991600
2005-06-13,24.375000,25.475000,24.375000,24.900000,19.536638,1224000
2005-06-20,24.780001,25.065001,24.250000,24.770000,19.434643,2689200
2005-06-27,24.695000,25.690001,24.500000,25.500000,20.007397,1654000
2005-07-04,25.430000,25.695000,24.625000,25.655001,20.129013,598200
2005-07-11,25.740000,26.049999,24.990000,25.105000,19.697479,846000
2005-07-18,25.065001,25.495001,24.700001,25.180000,19.756327,1052200
2005-07-25,25.184999,25.495001,24.840000,24.924999,19.556252,1057200
2005-08-01,24.980000,25.320000,24.830000,25.000000,19.770834,1107400
2005-08-08,25.100000,25.365000,24.930000,25.065001,19.822235,872000
2005-08-15,25.065001,25.350000,24.305000,24.565001,19.426823,863200
2005-08-22,24.620001,24.764999,24.110001,24.110001,19.066992,408400
2005-08-29,24.004999,25.225000,23.900000,24.905001,19.695707,684400
2005-09-05,25.000000,25.500000,24.580000,24.795000,19.608713,422800
2005-09-12,24.725000,25.125000,24.004999,24.299999,19.217253,693600
2005-09-19,24.250000,24.520000,23.555000,24.065001,19.031404,1154800
2005-09-26,25.000000,25.370001,24.635000,24.905001,19.695707,1038000
2005-10-03,25.025000,25.450001,24.525000,24.959999,19.739199,1070400
2005-10-10,24.725000,26.105000,24.480000,25.975000,20.541895,1332400
2005-10-17,26.000000,26.450001,23.799999,24.275000,19.197477,1987400
2005-10-24,24.150000,25.385000,24.115000,25.375000,20.067398,1678400
2005-10-31,25.264999,26.325001,25.135000,26.090000,20.632841,935000
2005-11-07,26.150000,26.540001,25.575001,26.450001,21.083723,747600
2005-11-14,26.325001,27.215000,26.075001,26.809999,21.370684,588600
2005-11-21,26.754999,27.070000,26.500000,27.010000,21.530104,425800
2005-11-28,27.174999,27.500000,26.379999,27.350000,21.801123,1096800
2005-12-05,27.299999,27.740000,26.885000,27.245001,21.717438,1249400
2005-12-12,27.260000,27.500000,26.200001,26.299999,20.964151,1093400
2005-12-19,26.174999,26.575001,26.000000,26.535000,21.151476,1199400
2005-12-26,26.485001,26.855000,26.075001,26.100000,20.804729,462200
2006-01-02,26.184999,27.030001,25.855000,26.795000,21.358732,818800
2006-01-09,26.795000,27.375000,26.795000,27.075001,21.581924,605600
2006-01-16,27.020000,27.600000,26.754999,27.530001,21.944609,437000
2006-01-23,27.540001,27.775000,26.820000,27.389999,21.833010,621400
2006-01-30,27.290001,28.434999,27.250000,27.680000,22.064171,834400
2006-02-06,27.680000,28.725000,27.145000,28.480000,22.868847,694600
2006-02-13,28.415001,28.415001,26.690001,27.135000,21.788849,1205600
2006-02-20,26.985001,27.129999,26.709999,26.889999,21.592119,689600
2006-02-27,26.809999,27.100000,26.225000,26.709999,21.447578,795000
2006-03-06,26.740000,27.150000,26.240000,27.150000,21.800892,844600
2006-03-13,27.084999,27.665001,26.965000,27.500000,22.081930,801200
2006-03-20,27.500000,27.655001,27.090000,27.230000,21.865129,705600
2006-03-27,27.165001,27.670000,26.754999,27.625000,22.182299,900200
2006-04-03,27.625000,27.665001,26.549999,26.790001,21.511818,807800
2006-04-10,26.715000,26.725000,26.160000,26.375000,21.178581,487600
2006-04-17,26.500000,27.110001,25.510000,26.150000,20.997911,987800
2006-04-24,26.200001,26.510000,25.690001,26.205000,21.042072,1136000
2006-05-01,26.205000,27.084999,26.075001,26.985001,21.834822,796000
2006-05-08,27.020000,27.350000,26.110001,26.455000,21.405975,642800
2006-05-15,26.455000,26.745001,25.885000,26.100000,21.118723,738200
2006-05-22,26.035000,26.315001,25.200001,25.865000,20.928587,1224200
2006-05-29,25.850000,26.410000,25.674999,26.315001,21.292694,998800
2006-06-05,26.315001,26.549999,25.355000,25.875000,20.936670,1258200
2006-06-12,25.865000,25.995001,24.889999,25.340000,20.503777,1033600
2006-06-19,25.400000,25.475000,24.805000,25.254999,20.434992,1018600
2006-06-26,25.325001,26.500000,24.805000,24.805000,20.070885,4801400
2006-07-03,25.180000,25.674999,24.565001,24.625000,19.925232,1874200
2006-07-10,24.639999,25.370001,23.430000,23.879999,19.322420,1663400
2006-07-17,23.879999,25.799999,23.504999,24.355000,19.706757,1891600
2006-07-24,24.575001,25.950001,24.575001,25.809999,20.884073,1608400
2006-07-31,25.750000,26.370001,25.195000,26.094999,21.300821,1342400
2006-08-07,25.985001,25.995001,24.934999,25.264999,20.623314,1335200
2006-08-14,25.299999,26.375000,25.145000,26.055000,21.268171,950000
2006-08-21,25.950001,26.065001,25.059999,25.209999,20.578417,900400
2006-08-28,25.209999,26.325001,25.200001,25.754999,21.023287,1275600
2006-09-04,25.690001,26.120001,24.674999,24.995001,20.402918,993600
2006-09-11,24.875000,25.750000,24.719999,25.080000,20.472303,1398600
2006-09-18,24.995001,25.424999,24.450001,24.795000,20.239664,1550800
2006-09-25,24.875000,26.075001,24.670000,25.440001,20.766165,1802200
2006-10-02,25.285000,26.375000,24.695000,26.219999,21.402857,1831000
2006-10-09,26.059999,27.565001,26.000000,27.465000,22.419125,1426600
2006-10-16,27.549999,28.375000,27.000000,28.025000,22.876251,1588000
2006-10-23,27.980000,28.375000,27.385000,27.565001,22.500755,1484400
2006-10-30,27.350000,27.980000,26.879999,27.905001,22.778290,1773600
2006-11-06,27.995001,28.725000,27.760000,28.530001,23.475836,1716200
2006-11-13,28.475000,30.344999,28.400000,30.250000,24.891129,2258600
2006-11-20,30.254999,30.469999,29.850000,30.225000,24.870564,1140200
2006-11-27,30.049999,30.635000,29.705000,30.250000,24.891129,1789000
2006-12-04,30.350000,31.145000,29.795000,30.014999,24.697763,1712400
2006-12-11,30.055000,30.209999,29.480000,29.885000,24.590788,1706600
2006-12-18,29.969999,30.000000,28.920000,29.125000,23.965429,1753000
2006-12-25,29.025000,30.240000,29.025000,29.520000,24.290453,856400
2007-01-01,29.750000,30.350000,28.879999,29.100000,23.944859,1069000
2007-01-08,29.004999,30.219999,28.725000,30.184999,24.837643,1092800
2007-01-15,30.475000,31.000000,29.715000,30.350000,24.973410,1253200
2007-01-22,30.469999,30.900000,29.844999,30.500000,25.096838,1890800
2007-01-29,30.395000,30.990000,30.305000,30.809999,25.351923,1760600
2007-02-05,30.809999,35.169998,30.150000,33.000000,27.351242,4221800
2007-02-12,33.040001,33.294998,32.145000,32.639999,27.052870,2464000
2007-02-19,32.580002,33.525002,32.485001,33.395000,27.678631,1979400
2007-02-26,33.525002,33.875000,32.250000,32.889999,27.260077,3501000
2007-03-05,32.570000,33.674999,32.419998,33.220001,27.533592,2301400
2007-03-12,33.220001,33.724998,32.250000,32.820000,27.202053,1882600
2007-03-19,32.965000,34.279999,32.865002,34.255001,28.391424,1298600
2007-03-26,34.125000,34.169998,33.195000,33.465000,27.736645,1461400
2007-04-02,33.599998,34.380001,33.340000,34.299999,28.428711,749400
2007-04-09,34.275002,34.990002,33.680000,34.674999,28.739523,1106800
2007-04-16,34.875000,38.490002,34.400002,37.560001,31.130692,3148200
2007-04-23,37.005001,38.290001,36.810001,37.900002,31.412493,1859400
2007-04-30,37.799999,37.799999,36.540001,37.494999,31.076803,1758000
2007-05-07,37.500000,37.720001,35.990002,37.209999,31.053635,1994200
2007-05-14,37.259998,37.470001,36.150002,36.810001,30.719816,2012200
2007-05-21,36.700001,37.799999,36.580002,37.099998,30.961826,1772700
2007-05-28,37.169998,38.310001,37.009998,38.049999,31.754652,1563700
2007-06-04,37.959999,38.299999,36.509998,36.980000,30.861687,1189300
2007-06-11,36.799999,38.169998,35.730000,37.919998,31.646158,1670000
2007-06-18,37.939999,38.000000,35.480000,35.810001,29.885273,1597400
2007-06-25,35.689999,36.779999,35.000000,35.560001,29.676634,1521700
2007-07-02,35.860001,37.130001,35.820000,37.080002,30.945147,738600
2007-07-09,37.209999,37.910000,36.349998,37.910000,31.637829,1300100
2007-07-16,37.730000,39.419998,36.580002,37.950001,31.671194,3928000
2007-07-23,38.099998,38.340000,34.990002,35.380001,29.526407,2597000
2007-07-30,35.430000,37.369999,35.000000,36.180000,30.303747,3160100
2007-08-06,36.279999,40.029999,34.950001,38.840000,32.531715,3521400
2007-08-13,39.400002,40.090000,35.430000,37.580002,31.476376,2574500
2007-08-20,37.619999,37.830002,35.750000,36.599998,30.655531,2037000
2007-08-27,36.419998,36.660000,34.840000,36.330002,30.429386,1297300
2007-09-03,36.099998,36.650002,33.919998,34.200001,28.645334,1750300
2007-09-10,34.450001,35.090000,33.369999,34.110001,28.569965,2081100
2007-09-17,33.959999,37.020000,33.700001,36.619999,30.672287,2299600
2007-09-24,36.540001,38.220001,35.950001,37.869999,31.719255,1291300
2007-10-01,37.790001,40.110001,37.750000,39.930000,33.444695,1216000
2007-10-08,39.799999,40.110001,38.389999,39.590000,33.159920,1183500
2007-10-15,39.540001,42.470001,38.529999,41.000000,34.340885,2358600
2007-10-22,40.639999,44.730000,40.639999,44.389999,37.180309,2942300
2007-10-29,44.299999,44.750000,42.090000,42.959999,35.982555,2191100
2007-11-05,42.299999,44.000000,41.000000,41.619999,34.962593,1869800
2007-11-12,41.520000,43.259998,40.900002,41.439999,34.811378,1835200
2007-11-19,41.000000,42.459999,39.830002,42.000000,35.281807,1287000
2007-11-26,41.970001,43.509998,40.419998,42.209999,35.458221,2401700
2007-12-03,42.060001,43.770000,40.610001,43.450001,36.499874,1181700
2007-12-10,43.459999,44.009998,41.610001,41.720001,35.046604,1474800
2007-12-17,41.389999,42.740002,39.689999,42.410000,35.626221,2627600
2007-12-24,42.680000,43.509998,41.340000,41.689999,35.021397,824600
2007-12-31,41.410000,42.720001,39.000000,40.410000,33.946148,1923800
2008-01-07,40.610001,40.849998,38.000000,38.000000,31.921637,2661100
2008-01-14,38.259998,39.380001,33.130001,35.110001,29.493914,3079000
2008-01-21,33.650002,36.799999,32.869999,36.360001,30.543980,2722300
2008-01-28,36.419998,38.720001,35.230000,38.060001,31.972048,2538200
2008-02-04,38.110001,38.150002,33.869999,36.349998,30.642427,3308700
2008-02-11,36.290001,39.820000,36.290001,38.939999,32.825748,8131400
2008-02-18,39.240002,39.470001,37.799999,38.779999,32.690861,1765100
2008-02-25,38.639999,40.070000,37.290001,37.480000,31.594986,2430000
2008-03-03,37.290001,38.110001,35.020000,35.779999,30.161921,3444900
2008-03-10,35.970001,37.040001,34.700001,35.400002,29.841585,2817700
2008-03-17,34.799999,38.880001,34.509998,37.700001,31.780447,3371500
2008-03-24,37.840000,39.759998,37.810001,38.549999,32.496983,1545800
2008-03-31,38.459999,41.180000,38.220001,40.560001,34.191368,1741000
2008-04-07,40.709999,41.139999,39.560001,39.820000,33.567574,1548200
2008-04-14,39.750000,45.419998,39.200001,44.270000,37.318848,3733000
2008-04-21,44.330002,45.400002,43.389999,44.950001,37.892075,2351200
2008-04-28,45.060001,45.330002,43.810001,44.090000,37.167107,1945300
2008-05-05,44.150002,44.750000,42.490002,43.730000,36.970551,1740500
2008-05-12,43.980000,45.209999,43.259998,44.720001,37.807518,1338700
2008-05-19,44.570000,44.849998,43.200001,43.950001,37.156548,2100600
2008-05-26,44.220001,45.889999,43.230000,44.720001,37.807518,2207700
2008-06-02,44.889999,46.189999,43.799999,44.759998,37.841339,2113100
2008-06-09,45.139999,45.139999,42.599998,43.259998,36.573204,2422800
2008-06-16,42.950001,43.419998,41.849998,42.139999,35.626324,2204100
2008-06-23,42.290001,42.830002,40.740002,42.360001,35.812317,6955000
2008-06-30,42.400002,42.560001,40.490002,41.160000,34.797802,2128100
2008-07-07,41.450001,42.080002,40.250000,41.419998,35.017609,1693200
2008-07-14,41.880001,43.639999,37.209999,38.070000,32.185417,4550500
2008-07-21,38.389999,38.950001,36.540001,37.590000,31.779623,3353900
2008-07-28,37.169998,39.880001,36.750000,38.709999,32.726501,2234700
2008-08-04,38.810001,40.299999,37.689999,39.730000,33.723412,1673600
2008-08-11,39.730000,41.110001,39.240002,40.480000,34.360027,1334700
2008-08-18,40.529999,40.529999,38.869999,40.099998,34.037487,1414400
2008-08-25,39.860001,41.060001,39.009998,40.389999,34.283630,1445900
2008-09-01,40.790001,41.779999,38.959999,39.740002,33.731903,1257100
2008-09-08,40.619999,40.930000,38.930000,40.279999,34.190258,1722100
2008-09-15,39.150002,44.029999,37.650002,41.389999,35.132450,2824100
2008-09-22,41.070000,41.570000,39.130001,39.750000,33.740387,1603900
2008-09-29,39.000000,39.750000,36.299999,36.520000,30.998720,2608000
2008-10-06,35.490002,36.680000,23.740000,33.529999,28.460760,3590700
2008-10-13,34.360001,35.939999,27.010000,32.230000,27.357306,3363400
2008-10-20,32.529999,32.990002,25.490000,27.160000,23.053812,3792200
2008-10-27,26.780001,30.620001,25.889999,30.320000,25.736065,2935300
2008-11-03,30.309999,32.330002,30.010000,31.590000,26.962976,1836500
2008-11-10,32.200001,32.290001,28.520000,29.879999,25.503441,1873000
2008-11-17,29.530001,31.129999,27.840000,29.230000,24.948643,3169600
2008-11-24,29.520000,33.439999,29.379999,33.439999,28.541990,1638200
2008-12-01,32.490002,32.490002,29.250000,32.139999,27.432419,2902000
2008-12-08,32.900002,33.849998,30.090000,32.240002,27.517769,3632800
2008-12-15,32.500000,34.930000,31.520000,33.439999,28.541990,2768500
2008-12-22,33.169998,33.689999,32.070000,33.580002,28.661503,1274300
2008-12-29,33.610001,36.080002,32.930000,35.820000,30.573404,1357600
2009-01-05,35.689999,36.070000,32.169998,32.540001,27.773825,3166700
2009-01-12,32.560001,32.750000,29.370001,30.440001,25.981411,3129600
2009-01-19,30.230000,30.580000,29.040001,30.010000,25.614399,1926800
2009-01-26,30.049999,32.320000,29.910000,30.820000,26.305756,1885300
2009-02-02,30.379999,30.930000,29.020000,30.860001,26.470638,4045900
2009-02-09,30.600000,30.830000,28.590000,29.180000,25.029591,2414300
2009-02-16,28.240000,28.540001,26.700001,27.320000,23.434147,1664600
2009-02-23,27.559999,28.540001,26.250000,28.059999,24.068895,3144700
2009-03-02,27.620001,27.840000,24.950001,25.549999,21.915907,2740500
2009-03-09,25.450001,27.549999,25.110001,27.420000,23.519924,1817800
2009-03-16,27.580000,30.510000,27.100000,29.490000,25.295502,2348400
2009-03-23,30.080000,32.509998,29.540001,32.099998,27.534271,1408600
2009-03-30,31.410000,33.209999,30.290001,32.849998,28.177591,1950600
2009-04-06,32.730000,33.549999,31.219999,33.500000,28.735146,1275200
2009-04-13,33.189999,33.189999,29.100000,29.670000,25.449900,2641600
2009-04-20,29.240000,30.469999,28.610001,30.280001,25.973131,2235700
2009-04-27,29.809999,31.629999,29.580000,30.690001,26.324816,1816400
2009-05-04,30.850000,31.930000,30.490000,31.360001,27.033440,1696700
2009-05-11,30.680000,31.280001,30.010000,30.650000,26.421389,1407800
2009-05-18,30.900000,31.620001,30.400000,30.680000,26.447247,1239100
2009-05-25,30.530001,31.900000,30.070000,31.010000,26.731722,1246900
2009-06-01,31.549999,33.310001,31.549999,32.439999,27.964430,1714200
2009-06-08,32.080002,34.259998,32.040001,34.020000,29.326450,1461500
2009-06-15,33.840000,34.020000,32.740002,32.910000,28.369589,1174600
2009-06-22,32.730000,33.450001,31.910000,33.360001,28.757509,1209400
2009-06-29,33.490002,34.650002,33.080002,33.650002,29.007498,720000
2009-07-06,33.360001,33.480000,32.139999,32.709999,28.197191,871100
2009-07-13,32.750000,36.099998,32.360001,35.139999,30.291929,1323700
2009-07-20,35.389999,36.490002,35.119999,36.060001,31.085009,1001600
2009-07-27,35.900002,35.900002,34.480000,34.919998,30.102280,1258200
2009-08-03,35.340000,36.090000,34.970001,35.320000,30.574282,769100
2009-08-10,35.110001,36.209999,34.580002,35.450001,30.686813,694500
2009-08-17,34.959999,36.000000,34.299999,35.630001,30.842634,710900
2009-08-24,35.759998,35.950001,34.470001,34.770000,30.098177,559000
2009-08-31,34.470001,34.849998,33.580002,34.299999,29.691326,728400
2009-09-07,34.700001,35.660000,34.189999,35.480000,30.712782,748600
2009-09-14,35.279999,37.470001,35.110001,36.700001,31.768848,1029700
2009-09-21,36.470001,38.090000,36.209999,36.380001,31.491848,939000
2009-09-28,36.639999,37.650002,36.029999,36.119999,31.266773,805000
2009-10-05,36.209999,37.980000,35.980000,37.980000,32.876869,822000
2009-10-12,38.070000,38.959999,36.500000,37.490002,32.452705,1424700
2009-10-19,37.689999,37.779999,36.430000,36.959999,31.993929,1077600
2009-10-26,36.849998,37.459999,35.040001,35.310001,30.565634,1333200
2009-11-02,35.380001,35.759998,34.520000,35.439999,30.803169,1196400
2009-11-09,35.619999,36.270000,35.450001,36.000000,31.289896,877500
2009-11-16,36.340000,37.070000,35.750000,36.340000,31.585411,1063500
2009-11-23,36.860001,37.299999,35.610001,35.910000,31.211679,255300
2009-11-30,35.810001,36.990002,35.419998,36.529999,31.750557,812100
2009-12-07,36.410000,37.090000,36.040001,36.580002,31.794025,607800
2009-12-14,36.939999,36.980000,35.840000,35.930000,31.229063,890400
2009-12-21,36.150002,36.439999,35.959999,36.369999,31.611492,679900
2009-12-28,36.419998,36.520000,35.740002,35.740002,31.063915,561500
2010-01-04,35.889999,36.889999,35.889999,36.779999,31.967848,1007200
2010-01-11,36.840000,37.009998,36.070000,36.240002,31.498507,686200
2010-01-18,36.110001,36.889999,35.930000,36.060001,31.342041,537800
2010-01-25,36.220001,36.590000,35.480000,35.480000,30.837934,729000
2010-02-01,35.410000,36.310001,34.459999,35.029999,30.446814,769100
2010-02-08,35.029999,38.490002,34.869999,38.040001,33.203377,1935900
2010-02-15,38.400002,38.410000,37.240002,38.119999,33.273197,1068100
2010-02-22,38.340000,38.650002,37.560001,38.529999,33.631062,775400
2010-03-01,38.560001,40.369999,38.340000,40.349998,35.219666,794300
2010-03-08,40.299999,40.830002,40.000000,40.400002,35.263309,1269100
2010-03-15,40.389999,40.849998,39.689999,39.810001,34.748322,893200
2010-03-22,39.509998,40.000000,38.790001,39.119999,34.146046,908600
2010-03-29,39.169998,39.840000,38.630001,39.500000,34.477741,419500
2010-04-05,39.529999,40.930000,39.220001,40.919998,35.717194,734800
2010-04-12,41.000000,44.360001,40.799999,42.849998,37.401791,1534400
2010-04-19,42.639999,43.349998,42.250000,43.240002,37.742207,878700
2010-04-26,43.270000,44.180000,42.500000,43.040001,37.567646,1272900
2010-05-03,43.290001,44.119999,39.650002,40.340000,35.333500,1425400
2010-05-10,41.610001,42.840000,40.619999,40.810001,35.745174,1183200
2010-05-17,40.869999,41.810001,37.939999,38.709999,33.905804,1385800
2010-05-24,38.560001,40.130001,37.340000,39.860001,34.913086,1164300
2010-05-31,39.720001,40.139999,38.310001,38.459999,33.686829,975000
2010-06-07,38.560001,39.160000,37.410000,39.130001,34.273678,793700
2010-06-14,39.360001,40.900002,38.880001,40.520000,35.491165,828700
2010-06-21,40.860001,41.119999,38.000000,38.740002,33.932087,916200
2010-06-28,38.900002,39.500000,36.910000,38.029999,33.310196,926500
2010-07-05,38.349998,39.380001,37.169998,39.230000,34.361252,510300
2010-07-12,39.230000,40.889999,38.810001,39.830002,34.886791,677400
2010-07-19,39.830002,42.840000,39.180000,42.700001,37.400623,999400
2010-07-26,42.910000,43.820000,42.320000,43.070000,37.724701,1021500
2010-08-02,43.779999,44.049999,43.099998,43.770000,38.499012,840900
2010-08-09,44.000000,44.000000,41.099998,41.849998,36.810230,800800
2010-08-16,41.689999,43.099998,41.400002,42.060001,36.994934,522800
2010-08-23,42.360001,42.360001,40.310001,42.009998,36.950958,560100
2010-08-30,41.889999,43.939999,40.750000,43.849998,38.569382,628600
2010-09-06,43.779999,44.549999,43.349998,44.009998,38.710106,352700
2010-09-13,44.380001,46.020000,44.380001,45.270000,39.818375,1240200
2010-09-20,45.349998,45.660000,43.970001,44.830002,39.431366,612300
2010-09-27,44.759998,46.549999,44.209999,45.279999,39.827164,725600
2010-10-04,45.290001,46.750000,44.900002,46.439999,40.847477,595900
2010-10-11,46.389999,47.450001,46.160000,46.759998,41.128944,593500
2010-10-18,46.939999,47.610001,44.400002,45.049999,39.624866,1160700
2010-10-25,45.200001,45.709999,44.700001,44.880001,39.475342,877100
2010-11-01,45.029999,46.500000,44.540001,46.419998,40.829887,683000
2010-11-08,46.080002,46.919998,45.980000,46.009998,40.632217,668500
2010-11-15,46.209999,46.549999,45.070000,45.580002,40.252495,581200
2010-11-22,45.299999,46.669998,44.950001,46.349998,40.932487,345600
2010-11-29,46.029999,48.419998,45.189999,48.220001,42.583923,731600
2010-12-06,48.160000,48.369999,46.360001,47.060001,41.559505,1102400
2010-12-13,47.169998,47.509998,46.590000,47.110001,41.603661,931100
2010-12-20,47.160000,48.450001,46.990002,47.869999,42.274834,498400
2010-12-27,47.709999,48.360001,47.410000,47.570000,42.009892,483300
2011-01-03,47.779999,48.299999,47.080002,47.380001,41.842106,597400
2011-01-10,47.220001,48.520000,46.750000,48.470001,42.804703,666200
2011-01-17,48.349998,49.139999,47.700001,48.009998,42.398449,771400
2011-01-24,48.130001,48.939999,47.700001,47.810001,42.221840,665500
2011-01-31,47.790001,48.880001,47.529999,48.599998,42.919498,654600
2011-02-07,48.810001,50.060001,48.529999,49.480000,43.861782,724000
2011-02-14,49.730000,49.900002,48.900002,49.490002,43.870647,1051500
2011-02-21,48.840000,49.330002,46.950001,48.040001,42.585289,775100
2011-02-28,48.209999,48.869999,47.230000,47.939999,42.496651,979400
2011-03-07,48.090000,49.759998,47.349998,48.139999,42.673931,962800
2011-03-14,47.740002,48.560001,46.500000,48.000000,42.549816,957800
2011-03-21,48.459999,49.750000,48.310001,48.970001,43.409695,556700
2011-03-28,49.150002,51.110001,48.520000,50.779999,45.014164,718800
2011-04-04,50.939999,51.869999,50.130001,50.360001,44.641869,557100
2011-04-11,50.540001,50.540001,49.150002,50.230000,44.526619,388600
2011-04-18,49.740002,51.509998,48.849998,51.369999,45.537170,551800
2011-04-25,51.250000,52.750000,50.770000,52.450001,46.494553,747500
2011-05-02,52.540001,53.020000,51.029999,51.259998,45.599449,846700
2011-05-09,51.340000,53.080002,51.200001,52.310001,46.533497,929800
2011-05-16,52.049999,53.799999,51.669998,52.520000,46.720310,1251100
2011-05-23,51.700001,52.439999,51.169998,52.230000,46.462330,729300
2011-05-30,52.619999,53.480000,51.110001,51.150002,45.501587,1063700
2011-06-06,51.160000,51.369999,50.270000,50.400002,44.834427,828000
2011-06-13,51.779999,51.939999,50.060001,50.480000,44.905586,1219200
2011-06-20,50.450001,51.419998,49.930000,50.610001,45.021229,724900
2011-06-27,50.619999,53.340000,50.230000,53.240002,47.360802,988400
2011-07-04,53.259998,54.660000,52.830002,54.209999,48.223682,722800
2011-07-11,53.500000,54.099998,52.180000,52.660000,46.844849,677100
2011-07-18,52.400002,53.790001,47.610001,53.040001,47.182884,1493700
2011-07-25,52.560001,53.240002,49.790001,51.049999,45.412636,1216300
2011-08-01,51.529999,51.660000,46.830002,47.740002,42.651283,1465300
2011-08-08,46.320000,48.250000,44.959999,47.799999,42.704884,1878400
2011-08-15,47.480000,48.630001,45.520000,46.660000,41.686398,1497300
2011-08-22,47.799999,48.700001,46.500000,48.500000,43.330273,1244600
2011-08-29,49.419998,51.119999,47.709999,47.990002,42.874634,1016300
2011-09-05,46.669998,48.980000,46.619999,48.080002,42.955036,1336900
2011-09-12,47.669998,50.080002,47.090000,49.230000,43.982456,1056500
2011-09-19,48.259998,49.139999,45.299999,46.150002,41.230755,1193700
2011-09-26,46.410000,48.470001,44.660000,44.669998,39.908520,1013000
2011-10-03,44.349998,46.880001,41.980000,45.950001,41.052074,1141300
2011-10-10,46.830002,49.060001,46.770000,48.639999,43.455345,938800
2011-10-17,48.299999,48.840000,46.919998,48.490002,43.321331,656300
2011-10-24,48.750000,49.849998,47.930000,49.130001,43.893124,923000
2011-10-31,48.689999,49.240002,45.980000,48.759998,43.562557,1136900
2011-11-07,48.560001,48.900002,46.750000,48.599998,43.419598,1129600
2011-11-14,48.340000,49.160000,47.470001,48.029999,43.104851,991000
2011-11-21,47.310001,48.070000,46.480000,46.509998,41.740704,878800
2011-11-28,47.560001,51.750000,47.560001,50.950001,45.725426,1432000
2011-12-05,51.000000,51.900002,49.680000,50.730000,45.527969,998600
2011-12-12,50.119999,51.340000,48.799999,51.180000,45.931847,1534100
2011-12-19,51.470001,52.730000,49.849998,52.580002,47.188278,813300
2011-12-26,52.330002,52.869999,51.630001,52.169998,46.820313,456200
2012-01-02,53.180000,53.439999,51.439999,51.849998,46.533134,908000
2012-01-09,52.099998,52.410000,51.119999,51.480000,46.201073,956900
2012-01-16,51.840000,52.369999,51.310001,51.549999,46.263901,671900
2012-01-23,51.529999,52.549999,51.009998,52.279999,46.919044,968700
2012-01-30,51.750000,53.799999,51.259998,53.500000,48.013943,1001200
2012-02-06,53.349998,53.820000,51.150002,53.040001,47.802273,910100
2012-02-13,53.279999,53.570000,51.930000,52.820000,47.603996,801800
2012-02-20,53.029999,53.599998,51.650002,53.230000,47.973511,714300
2012-02-27,53.040001,53.470001,52.200001,53.200001,47.946468,1551800
2012-03-05,53.020000,53.900002,51.959999,53.540001,48.252892,1390700
2012-03-12,53.509998,54.919998,53.270000,54.740002,49.334389,1372600
2012-03-19,54.549999,54.959999,53.230000,54.290001,48.928833,870000
2012-03-26,54.529999,55.000000,54.459999,54.770000,49.361427,1031400
2012-04-02,54.759998,55.490002,54.000000,54.340000,48.973885,846600
2012-04-09,53.709999,54.639999,52.029999,54.080002,48.739567,1252000
2012-04-16,54.130001,55.049999,53.730000,54.889999,49.469582,1020700
2012-04-23,54.389999,55.110001,53.549999,54.790001,49.379452,1462400
2012-04-30,54.759998,55.389999,53.610001,53.720001,48.612213,1344000
2012-05-07,53.509998,54.110001,52.689999,53.389999,48.313591,952000
2012-05-14,52.830002,52.849998,49.630001,49.700001,44.974445,1049000
2012-05-21,49.820000,51.410000,49.740002,50.610001,45.797928,1112900
2012-05-28,51.029999,51.619999,49.360001,50.259998,45.481190,3360400
2012-06-04,50.250000,52.529999,49.689999,52.400002,47.417721,940100
2012-06-11,52.750000,52.930000,51.709999,52.270000,47.300083,856300
2012-06-18,52.180000,53.259998,51.000000,51.720001,46.802387,1088300
2012-06-25,51.189999,51.700001,50.060001,51.049999,46.196083,1024700
2012-07-02,51.070000,52.740002,50.919998,51.459999,46.567097,783600
2012-07-09,49.490002,50.209999,47.560001,49.840000,45.101135,2100600
2012-07-16,49.810001,50.810001,49.150002,50.110001,45.345459,839700
2012-07-23,49.470001,51.959999,48.349998,50.650002,45.834122,1556400
2012-07-30,50.720001,51.220001,48.080002,50.060001,45.300217,1153500
2012-08-06,50.060001,50.459999,49.509998,49.889999,45.146374,833400
2012-08-13,49.750000,50.869999,49.299999,50.619999,46.009499,733900
2012-08-20,50.680000,50.910000,50.000000,50.820000,46.191284,740000
2012-08-27,51.000000,51.139999,50.200001,50.650002,46.036766,900600
2012-09-03,50.720001,51.799999,50.070000,51.490002,46.800259,1469900
2012-09-10,50.700001,52.590000,50.330002,52.459999,47.681908,868400
2012-09-17,52.430000,53.189999,51.849998,52.669998,47.872772,1262600
2012-09-24,52.169998,53.029999,51.090000,51.709999,47.000206,1268300
2012-10-01,51.709999,53.000000,51.040001,52.570000,47.781872,1098000
2012-10-08,52.450001,52.720001,51.110001,51.230000,46.563931,722900
2012-10-15,51.209999,53.060001,50.930000,52.340000,47.572830,638600
2012-10-22,52.299999,52.650002,51.049999,51.650002,46.945679,691300
2012-10-29,50.799999,53.360001,49.169998,49.490002,44.982418,1243000
2012-11-05,49.700001,50.750000,48.000000,48.020000,43.646313,1502500
2012-11-12,48.000000,48.349998,45.189999,46.189999,42.170441,2412200
2012-11-19,46.590000,47.630001,46.400002,47.619999,43.475990,912600
2012-11-26,47.410000,48.119999,46.709999,47.669998,43.521648,1364700
2012-12-03,48.020000,48.070000,46.610001,47.700001,43.549038,1151100
2012-12-10,47.619999,48.099998,46.840000,46.919998,42.836914,1139800
2012-12-17,46.990002,48.549999,46.980000,47.759998,43.603809,2045200
2012-12-24,47.650002,48.099998,47.189999,47.340000,43.220367,554400
2012-12-31,47.189999,49.630001,47.040001,49.619999,45.301941,1303300
2013-01-07,49.369999,51.869999,49.099998,51.040001,46.598373,1344700
2013-01-14,50.880001,52.330002,50.750000,52.330002,47.776123,783200
2013-01-21,52.220001,52.389999,51.730000,52.029999,47.502228,843500
2013-01-28,51.950001,52.250000,50.790001,52.230000,47.684826,1574800
2013-02-04,51.910000,53.430000,51.799999,52.509998,48.171917,1377400
2013-02-11,52.470001,53.310001,51.880001,53.110001,48.722359,878700
2013-02-18,53.360001,53.849998,51.950001,52.820000,48.456322,984400
2013-02-25,52.939999,53.990002,52.090000,53.470001,49.052612,1217800
2013-03-04,53.279999,55.250000,52.970001,55.250000,50.685558,766800
2013-03-11,55.169998,55.740002,54.950001,55.700001,51.098385,1268400
2013-03-18,55.340000,56.880001,55.160000,56.240002,51.593773,911700
2013-03-25,56.389999,57.470001,55.630001,57.349998,52.612064,741800
2013-04-01,57.419998,57.419998,55.750000,56.090000,51.456165,947900
2013-04-08,56.250000,57.689999,55.889999,56.900002,52.199249,708500
2013-04-15,56.619999,56.680000,54.400002,55.080002,50.529606,894900
2013-04-22,55.279999,56.840000,54.750000,55.389999,50.813995,871200
2013-04-29,55.740002,56.470001,55.020000,55.990002,51.594093,1648700
2013-05-06,56.049999,56.990002,55.759998,56.490002,52.054848,1285400
2013-05-13,56.549999,57.160000,55.740002,57.070000,52.589306,961400
2013-05-20,56.930000,57.520000,55.869999,56.220001,51.806038,643100
2013-05-27,56.730000,57.349998,56.029999,56.720001,52.266781,783000
2013-06-03,56.709999,57.310001,55.669998,57.000000,52.524796,826200
2013-06-10,57.189999,57.759998,55.669998,57.040001,52.561665,573300
2013-06-17,57.320000,57.580002,54.590000,55.029999,50.709465,960800
2013-06-24,54.470001,55.730000,54.130001,55.209999,50.875332,1122800
2013-07-01,55.490002,56.630001,55.360001,56.619999,52.174637,436400
2013-07-08,56.790001,59.660000,56.599998,59.650002,54.966747,744000
2013-07-15,59.599998,59.930000,59.130001,59.580002,54.902241,804400
2013-07-22,59.709999,60.110001,57.549999,57.939999,53.390999,872300
2013-07-29,57.689999,60.740002,57.689999,60.480000,55.731579,1801700
2013-08-05,60.430000,60.610001,58.959999,60.119999,55.639915,677800
2013-08-12,59.880001,60.580002,59.029999,59.290001,54.871769,476800
2013-08-19,59.240002,60.040001,58.770000,59.840000,55.380783,551100
2013-08-26,59.900002,60.419998,58.430000,58.810001,54.427536,695200
2013-09-02,59.439999,59.779999,57.400002,58.509998,54.149891,785200
2013-09-09,58.700001,59.939999,58.299999,59.009998,54.612633,828200
2013-09-16,59.709999,60.570000,59.169998,60.240002,55.750988,1088100
2013-09-23,60.189999,60.750000,59.630001,59.650002,55.204937,938900
2013-09-30,59.250000,61.660000,59.150002,60.130001,55.649170,1430500
2013-10-07,59.770000,61.509998,59.189999,61.450001,56.870808,1142500
2013-10-14,61.080002,63.290001,60.790001,63.189999,58.481144,644300
2013-10-21,63.180000,64.360001,63.009998,64.279999,59.489918,576500
2013-10-28,64.120003,64.699997,62.209999,63.889999,59.128975,1093400
2013-11-04,63.939999,64.769997,63.070000,64.250000,59.462154,835800
2013-11-11,64.190002,65.230003,63.939999,64.940002,60.336819,728100
2013-11-18,65.089996,65.099998,63.750000,64.199997,59.649281,1686500
2013-11-25,64.419998,65.250000,63.720001,64.919998,60.318249,1297700
2013-12-02,64.959999,65.730003,63.099998,64.690002,60.104557,889400
2013-12-09,64.570000,64.699997,63.139999,63.700001,59.184731,887700
2013-12-16,64.089996,65.459999,63.820000,65.360001,60.727055,1108700
2013-12-23,65.699997,67.099998,65.239998,66.720001,61.990665,501000
2013-12-30,66.760002,68.010002,66.489998,66.849998,62.111443,836900
2014-01-06,67.129997,68.680000,66.250000,68.050003,63.226398,2081300
2014-01-13,68.190002,68.779999,67.000000,67.239998,62.473804,3814000
2014-01-20,67.570000,67.730003,64.440002,64.480003,59.909439,1409400
2014-01-27,64.160004,64.620003,62.840000,63.799999,59.277630,1681400
2014-02-03,63.860001,64.000000,61.180000,63.490002,59.219212,1806700
2014-02-10,63.200001,64.940002,62.869999,64.769997,60.413105,898800
2014-02-17,64.860001,65.480003,64.260002,64.639999,60.291847,823100
2014-02-24,64.699997,66.739998,64.250000,66.169998,61.718937,1018700
2014-03-03,65.529999,66.370003,65.099998,65.730003,61.308544,952900
2014-03-10,65.709999,65.860001,63.990002,64.510002,60.170609,832400
2014-03-17,64.720001,65.760002,64.470001,64.750000,60.394455,905700
2014-03-24,64.540001,65.220001,63.110001,64.269997,59.946747,702300
2014-03-31,64.699997,67.510002,64.459999,66.040001,61.597675,1159200
2014-04-07,65.870003,67.349998,64.540001,64.720001,60.366478,909600
2014-04-14,65.129997,66.889999,64.589996,66.570000,62.092037,993300
2014-04-21,66.519997,67.779999,66.230003,67.139999,62.623680,940900
2014-04-28,66.910004,67.720001,66.320000,66.680000,62.194637,1211400
2014-05-05,66.139999,67.260002,65.639999,66.589996,62.370804,1018600
2014-05-12,66.959999,67.839996,65.529999,66.139999,61.949314,831000
2014-05-19,66.150002,67.180000,65.339996,65.989998,61.808807,765400
2014-05-26,66.139999,66.660004,65.440002,66.589996,62.370804,703700
2014-06-02,66.720001,67.300003,65.800003,67.110001,62.857841,714100
2014-06-09,67.029999,67.580002,64.949997,66.410004,62.202209,689500
2014-06-16,66.309998,67.099998,65.410004,66.629997,62.408268,933200
2014-06-23,66.809998,67.010002,65.790001,67.010002,62.764202,1051800
2014-06-30,66.889999,68.000000,66.550003,66.970001,62.726723,673300
2014-07-07,66.750000,66.919998,65.459999,66.349998,62.146011,838100
2014-07-14,66.750000,67.070000,64.660004,66.050003,61.865021,1278900
2014-07-21,65.680000,65.680000,63.240002,63.500000,59.476589,1677800
2014-07-28,63.110001,63.240002,60.570000,61.130001,57.256752,1696600
2014-08-04,61.299999,62.419998,60.520000,62.360001,58.667503,1324600
2014-08-11,62.680000,63.700001,61.770000,63.299999,59.551846,1023800
2014-08-18,63.599998,64.389999,63.340000,63.619999,59.852894,979600
2014-08-25,64.010002,64.230003,63.380001,64.150002,60.351524,615800
2014-09-01,64.379997,65.199997,63.919998,65.199997,61.339344,811300
2014-09-08,65.010002,65.370003,62.480000,62.700001,58.987370,977800
2014-09-15,62.880001,63.040001,61.139999,61.160000,57.538551,1683200
2014-09-22,61.099998,61.500000,60.570000,61.380001,57.745537,1567500
2014-09-29,60.860001,61.840000,58.910000,60.110001,56.550732,1657500
2014-10-06,60.250000,60.650002,57.439999,57.500000,54.095276,1610700
2014-10-13,57.410000,59.070000,55.590000,58.700001,55.224228,3507400
2014-10-20,58.709999,62.369999,58.459999,61.919998,58.253551,1717000
2014-10-27,61.369999,62.689999,58.360001,62.240002,58.554611,2275800
2014-11-03,61.730000,64.849998,61.340000,64.769997,60.934799,1964900
2014-11-10,64.839996,65.870003,64.599998,64.830002,61.266880,1209200
2014-11-17,64.959999,65.809998,64.360001,65.099998,61.522038,1266100
2014-11-24,65.209999,65.599998,64.910004,65.250000,61.663799,576900
2014-12-01,64.820000,66.900002,64.529999,66.260002,62.618267,1120400
2014-12-08,66.190002,66.580002,64.589996,64.639999,61.087311,861100
2014-12-15,64.860001,67.269997,63.400002,67.129997,63.440472,1506500
2014-12-22,67.410004,68.169998,66.830002,67.860001,64.130325,624700
2014-12-29,67.589996,68.669998,65.910004,66.650002,62.986847,678700
2015-01-05,66.199997,66.699997,63.480000,65.470001,61.871700,1673100
2015-01-12,65.489998,66.529999,63.369999,64.470001,60.926655,1169100
2015-01-19,64.300003,65.070000,63.650002,63.759998,60.255684,1009900
2015-01-26,63.580002,64.010002,61.389999,63.110001,59.641407,1801300
2015-02-02,63.230000,66.599998,62.709999,64.330002,61.062504,2585700
2015-02-09,64.040001,64.739998,63.180000,64.559998,61.280823,2187500
2015-02-16,64.129997,66.269997,64.129997,66.169998,62.809048,1121100
2015-02-23,65.919998,66.400002,65.449997,65.870003,62.524303,1155100
2015-03-02,65.870003,66.559998,63.919998,64.269997,61.005554,1193700
2015-03-09,64.129997,64.699997,62.709999,63.099998,59.894974,1614600
2015-03-16,63.430000,64.540001,62.570000,63.230000,60.018379,1894100
2015-03-23,63.349998,63.910000,62.709999,63.180000,59.970921,1571300
2015-03-30,63.410000,63.980000,62.820000,63.150002,59.942448,1363000
2015-04-06,62.919998,63.570000,62.759998,63.490002,60.265179,1242400
2015-04-13,63.049999,63.730000,61.980000,62.840000,59.648197,1602800
2015-04-20,63.070000,63.470001,62.439999,63.290001,60.075333,1277700
2015-04-27,63.380001,64.930000,62.000000,64.050003,60.796726,2775500
2015-05-04,64.339996,64.980003,62.610001,63.160000,60.218346,3444100
2015-05-11,62.970001,65.419998,62.380001,65.199997,62.163338,2464800
2015-05-18,65.120003,66.309998,64.330002,64.500000,61.495941,1443900
2015-05-25,64.480003,64.849998,63.650002,63.770000,60.799938,1046900
2015-06-01,64.019997,64.629997,63.310001,64.279999,61.286182,1776300
2015-06-08,64.239998,64.820000,63.560001,64.580002,61.572208,1330800
2015-06-15,64.059998,65.830002,63.619999,65.290001,62.249149,1887800
2015-06-22,65.639999,65.639999,64.029999,64.480003,61.476868,1432700
2015-06-29,64.150002,64.559998,63.560001,63.790001,60.819008,1373300
2015-07-06,63.450001,64.449997,63.169998,63.680000,60.714127,1377300
2015-07-13,63.779999,64.550003,63.630001,63.930000,60.952484,1192500
2015-07-20,63.820000,64.089996,61.500000,61.750000,58.874012,1138000
2015-07-27,61.220001,68.709999,60.730000,67.790001,64.632713,3161800
2015-08-03,67.779999,69.339996,66.540001,68.790001,65.884888,1422900
2015-08-10,69.010002,70.099998,67.930000,69.870003,66.919273,1197200
2015-08-17,69.620003,70.339996,67.040001,67.610001,64.754715,1195900
2015-08-24,64.800003,68.089996,64.660004,67.709999,64.850494,1594200
2015-08-31,67.389999,67.790001,65.500000,67.269997,64.429070,1251700
2015-09-07,67.750000,68.620003,66.080002,67.400002,64.553589,1435300
2015-09-14,67.279999,69.379997,66.709999,67.150002,64.314140,1535200
2015-09-21,67.480003,68.339996,64.839996,65.529999,62.762569,1411800
2015-09-28,65.139999,68.000000,63.619999,67.980003,65.109093,1761200
2015-10-05,68.430000,70.699997,67.610001,70.260002,67.292809,1237100
2015-10-12,70.309998,70.879997,68.949997,69.839996,66.890541,1072800
2015-10-19,69.610001,72.169998,69.540001,71.400002,68.384666,1123400
2015-10-26,71.300003,75.250000,69.629997,73.559998,70.453445,2181700
2015-11-02,74.769997,75.959999,72.680000,73.260002,70.166107,1661900
2015-11-09,73.050003,73.620003,70.570000,71.519997,68.780098,1553900
2015-11-16,71.870003,74.550003,71.150002,74.290001,71.443985,846500
2015-11-23,74.239998,75.559998,73.139999,75.010002,72.136414,795600
2015-11-30,75.169998,75.489998,72.919998,74.349998,71.501678,833100
2015-12-07,74.029999,74.599998,72.239998,72.860001,70.068756,1048100
2015-12-14,72.769997,73.949997,71.089996,71.110001,68.385796,1593600
2015-12-21,71.480003,73.639999,71.209999,73.300003,70.491905,641700
2015-12-28,72.980003,74.470001,72.620003,72.650002,69.866806,476900
2016-01-04,72.000000,72.209999,69.599998,69.879997,67.202919,1888200
2016-01-11,69.930000,70.919998,67.000000,68.070000,65.462265,1761900
2016-01-18,68.849998,68.849998,66.330002,68.250000,65.635361,1049800
2016-01-25,67.669998,72.910004,66.639999,72.900002,70.107216,2620500
2016-02-01,72.290001,74.660004,70.480003,71.120003,68.697388,1690100
2016-02-08,70.559998,75.650002,69.879997,75.300003,72.735008,2298800
2016-02-15,76.050003,76.190002,71.559998,72.879997,70.397438,1721900
2016-02-22,73.470001,74.949997,72.050003,73.330002,70.832115,1239000
2016-02-29,73.500000,76.099998,72.980003,76.000000,73.411163,1253300
2016-03-07,75.870003,76.809998,75.089996,75.779999,73.198654,1271600
2016-03-14,75.779999,77.760002,74.040001,76.889999,74.270859,1755300
2016-03-21,76.989998,78.889999,76.639999,77.389999,74.753807,914300
2016-03-28,77.680000,79.160004,77.379997,79.089996,76.395905,1805700
2016-04-04,79.230003,79.669998,76.660004,77.360001,74.724838,1043700
2016-04-11,77.970001,79.300003,76.870003,79.250000,76.550446,1003900
2016-04-18,79.000000,80.320000,78.430000,79.680000,76.965797,1171500
2016-04-25,78.940002,80.360001,75.709999,76.000000,73.411163,2157700
2016-05-02,75.779999,77.330002,75.010002,76.279999,73.960083,2418700
2016-05-09,76.169998,77.980003,75.660004,76.970001,74.629097,1236900
2016-05-16,77.080002,77.790001,74.160004,75.330002,73.038979,1508500
2016-05-23,75.489998,77.190002,74.730003,77.139999,74.793938,1024100
2016-05-30,77.220001,77.790001,76.070000,77.199997,74.852104,830000
2016-06-06,77.309998,78.550003,76.790001,78.199997,75.821686,881000
2016-06-13,77.750000,78.080002,75.660004,76.349998,74.027946,1357900
2016-06-20,77.180000,80.139999,76.540001,76.750000,74.415787,1347100
2016-06-27,75.930000,79.730003,74.269997,79.169998,76.762199,1307300
2016-07-04,78.849998,79.849998,77.800003,79.790001,77.363335,687000
2016-07-11,80.080002,81.169998,79.860001,79.919998,77.489380,774900
2016-07-18,79.919998,80.790001,79.220001,80.459999,78.012955,645100
2016-07-25,80.040001,81.500000,77.110001,78.180000,75.802299,1711100
2016-08-01,78.139999,78.139999,75.940002,76.589996,74.538582,1312200
2016-08-08,76.709999,77.589996,75.349998,75.580002,73.555634,755200
2016-08-15,75.870003,76.989998,75.010002,76.779999,74.723480,898700
2016-08-22,76.769997,79.070000,76.400002,78.470001,76.368225,1238600
2016-08-29,78.500000,79.180000,77.489998,79.160004,77.039734,1104800
2016-09-05,79.440002,80.550003,77.430000,77.459999,75.385284,1161700
2016-09-12,77.000000,78.559998,77.000000,77.599998,75.521523,1051700
2016-09-19,77.900002,79.510002,77.839996,78.790001,76.679649,1365700
2016-09-26,78.690002,78.970001,76.970001,77.410004,75.336617,1715200
2016-10-03,77.070000,77.680000,75.190002,75.639999,73.614021,1166500
2016-10-10,76.040001,76.519997,74.550003,76.029999,73.993576,798000
2016-10-17,76.019997,77.410004,75.389999,77.160004,75.093315,695300
2016-10-24,78.099998,78.099998,72.580002,73.019997,71.064186,1155200
2016-10-31,72.930000,73.889999,70.320000,71.410004,69.497330,1711100
2016-11-07,72.570000,76.070000,70.750000,71.849998,70.233330,2231200
2016-11-14,72.290001,74.260002,72.290001,73.650002,71.992828,1140400
2016-11-21,73.699997,76.660004,73.339996,76.070000,74.358383,952300
2016-11-28,76.099998,77.279999,72.459999,74.349998,72.677063,1852600
2016-12-05,74.839996,75.180000,71.839996,74.750000,73.068077,2084500
2016-12-12,74.849998,75.599998,72.730003,72.930000,71.289017,1798500
2016-12-19,73.190002,74.160004,72.580002,73.610001,71.953728,1283800
2016-12-26,73.809998,74.690002,73.250000,73.449997,71.797318,772400
2017-01-02,74.260002,74.720001,72.349998,73.500000,71.846191,1394300
2017-01-09,73.500000,74.410004,72.360001,73.500000,71.846191,1101900
2017-01-16,72.879997,73.830002,71.550003,71.639999,70.028046,1253200
2017-01-23,71.879997,73.940002,71.440002,73.440002,71.787537,1513500
2017-01-30,73.070000,74.129997,72.099998,73.779999,72.119904,2062200
2017-02-06,73.529999,76.199997,72.440002,74.790001,73.427109,2610700
2017-02-13,75.220001,75.440002,72.860001,73.900002,72.553345,1980400
2017-02-20,73.910004,74.809998,73.639999,74.360001,73.004951,876100
2017-02-27,74.099998,76.239998,73.949997,76.040001,74.654335,1639100
2017-03-06,75.470001,77.000000,75.180000,76.790001,75.390663,1967000
2017-03-13,76.800003,77.690002,75.349998,77.080002,75.675392,1304700
2017-03-20,77.169998,77.870003,76.320000,76.620003,75.223763,989400
2017-03-27,75.809998,77.379997,75.809998,76.989998,75.587029,962200
2017-04-03,76.940002,77.459999,75.489998,76.160004,74.772156,1624900
2017-04-10,75.940002,76.970001,75.760002,75.800003,74.418716,907400
2017-04-17,76.029999,78.639999,75.879997,77.989998,76.568794,1221600
2017-04-24,78.970001,80.529999,77.620003,80.300003,78.836716,1759500
2017-05-01,80.080002,82.169998,78.889999,81.910004,80.417374,2711400
2017-05-08,82.080002,83.040001,81.720001,82.430000,81.251686,1523900
2017-05-15,82.430000,82.980003,81.120003,82.360001,81.182693,1346300
2017-05-22,82.250000,84.629997,82.050003,84.370003,83.163956,991500
2017-05-29,84.129997,86.730003,83.800003,86.330002,85.095940,953100
2017-06-05,86.099998,87.089996,84.860001,85.650002,84.425659,1321600
2017-06-12,85.239998,86.769997,84.870003,85.949997,84.721359,1280000
2017-06-19,86.320000,87.940002,85.930000,86.800003,85.559219,1233100
2017-06-26,86.970001,87.589996,85.779999,86.860001,85.618362,1099100
2017-07-03,87.209999,88.550003,86.440002,88.089996,86.830772,1001800
2017-07-10,87.949997,89.970001,87.480003,89.430000,88.151619,1153600
2017-07-17,89.500000,90.790001,89.000000,89.510002,88.230476,1567700
2017-07-24,88.940002,89.959999,80.830002,82.309998,81.133400,2548800
2017-07-31,82.239998,83.500000,80.690002,82.360001,81.473961,2264900
2017-08-07,82.550003,82.949997,81.410004,82.139999,81.256325,1003000
2017-08-14,82.629997,83.830002,81.639999,82.150002,81.266220,999700
2017-08-21,82.059998,82.730003,80.949997,82.389999,81.503632,1007000
2017-08-28,82.650002,84.000000,81.489998,83.879997,82.977608,1125200
2017-09-04,83.720001,84.180000,82.320000,83.820000,82.918251,881400
2017-09-11,84.320000,85.440002,84.000000,84.709999,83.798676,1219400
2017-09-18,84.970001,86.760002,84.739998,85.720001,84.797806,1015100
2017-09-25,85.750000,87.510002,85.349998,86.309998,85.381462,1144300
2017-10-02,86.809998,88.849998,86.540001,88.580002,87.627045,1039400
2017-10-09,88.680000,89.370003,88.190002,88.839996,87.884239,843700
2017-10-16,88.919998,89.370003,87.970001,89.199997,88.240364,905000
2017-10-23,89.160004,89.680000,85.889999,87.930000,86.984032,1576000
2017-10-30,87.459999,88.120003,86.120003,86.940002,86.004684,1489600
2017-11-06,87.019997,87.080002,84.220001,84.910004,84.308563,1212300
2017-11-13,84.620003,86.500000,84.620003,85.650002,85.043320,931400
2017-11-20,85.610001,86.820000,85.099998,86.250000,85.639076,975400
2017-11-27,86.370003,88.989998,86.370003,87.599998,86.979507,1195700
2017-12-04,87.790001,89.160004,87.320000,87.900002,87.277382,1307800
2017-12-11,87.870003,87.870003,85.699997,86.980003,86.363907,1863400
2017-12-18,87.250000,87.889999,85.430000,85.900002,85.291550,1236400
2017-12-25,85.790001,87.000000,85.059998,86.279999,85.668854,600900
2018-01-01,86.440002,87.930000,85.800003,86.910004,86.294395,983100
2018-01-08,86.860001,87.760002,85.160004,86.559998,85.946877,1275600
2018-01-15,86.360001,88.699997,86.010002,88.610001,87.982353,902700
2018-01-22,88.610001,89.500000,86.349998,89.139999,88.508606,1329100
2018-01-29,88.730003,89.230003,85.540001,85.800003,85.192261,1556200
2018-02-05,85.099998,86.000000,79.970001,82.160004,81.876694,1806900
2018-02-12,82.559998,92.320000,81.589996,91.830002,91.513351,2585900
2018-02-19,91.239998,92.279999,89.930000,90.989998,90.676239,1159900
2018-02-26,91.279999,91.480003,88.300003,89.680000,89.370758,1356200
2018-03-05,89.309998,91.139999,89.279999,90.870003,90.556664,1495600
2018-03-12,90.699997,92.099998,89.430000,90.150002,89.839142,1369900
2018-03-19,90.059998,90.489998,86.690002,86.769997,86.470795,1145800
2018-03-26,87.660004,90.339996,87.070000,89.830002,89.520248,1013400
2018-04-02,89.370003,90.849998,86.849998,88.500000,88.194832,1436100
2018-04-09,89.150002,93.330002,88.599998,92.750000,92.430176,1662000
2018-04-16,93.029999,96.389999,92.959999,94.440002,94.114349,1433700
2018-04-23,94.709999,95.430000,91.879997,93.459999,93.137726,1714600
2018-04-30,93.730003,94.000000,90.839996,92.260002,91.941864,2866800
2018-05-07,92.370003,94.320000,91.370003,94.290001,93.964867,1626000
2018-05-14,94.190002,94.709999,91.589996,93.559998,93.559998,1656400
2018-05-21,94.019997,94.949997,93.360001,94.080002,94.080002,762400
2018-05-28,93.459999,94.410004,92.190002,92.769997,92.769997,790700
2018-06-04,93.110001,94.500000,92.040001,93.660004,93.660004,1548800
2018-06-11,93.790001,95.370003,93.430000,94.919998,94.919998,1991500
2018-06-18,94.570000,95.080002,92.339996,92.629997,92.629997,1944600
2018-06-22,93.279999,93.489998,92.339996,92.629997,92.629997,750023
